VO2
386
506
500
462
548
608
698
698
659
686
769
871
906
960
957
1054
1086
1089
1057
1029
1051
1051
1093
1070
1020
910
946
941
876
874
918
1092
1123
1124
1104
1096
1074
1046
1046
1003
1006
988
962
881
831
831
912
954
1006
1079
1124
1163
1121
1076
1038
963
974
1004
982
1013
981
994
1036
1032
1054
1104
1157
1140
1156
1158
1189
1165
1122
1083
1084
1084
982
1009
969
1069
1163
1188
994
995
1042
1111
931
1034
1122
1217
1333
1280
1279
1313
1234
1191
1182
1157
1113
1112
1152
1199
1227
1262
1263
1263
1263
1293
1310
1313
1355
1389
1390
1315
1275
1292
1356
1402
1444
1489
1513
1520
1501
1452
1452
1421
1480
1556
1615
1730
1831
1790
1816
1805
1739
1756
1740
1722
1768
1759
1761
1734
1765
1880
1986
2067
2139
2191
2230
2110
2064
2019
2019
2015
2045
2035
2095
2101
2102
2042
1956
1989
2123
2149
2171
2193
2345
2345
2250
2182
2167
2167
2158
2161
2194
2326
2341
2437
2374
2376
2345
2311
2255
2207
2147
2164
2229
2263
2256
2270
2300
2300
2301
2273
2272
2254
2215
2276
2368
2412
2432
2371
2357
2376
2365
2311
2312
2355
2389
2419
2439
2358
2399
2399
2353
2290
2340
2351
2350
2433
2405
2439
2531
2508
2482
2528
2523
2523
2438
2438
2464
2513
2465
2432
2463
2510
2510
2470
2480
2486
2536
2589
2572
2571
2605
2591
2592
2585
2537
2546
2554
2536
2515
2539
2496
2530
2548
2589
2607
2617
2559
2668
2639
2520
2188
2233
2054
1932
1998
2214
2747
2869
2721
2899
2948
2769
2684
2630
2677
2665
2648
2646
2637
2614
2591
2609
2603
2595
2586
2614
2611
2629
2595
2595
2612
2609
2568
2550
2583
2641
2651
2669
2670
2725
2725
2526
2527
2511
2657
2666
2685
2829
2829
2678
2704
2664
2698
2658
2668
2722
2730
2745
2758
2741
2789
2788
2723
2771
2680
2675
2661
2685
2747
2791
2729
2745
2719
2762
2725
2742
2720
2705
2672
2726
2723
2765
2745
2768
2784
2808
2789
2786
2745
2720
2700
2761
2762
2769
2769
2759
2804
2786
2758
2784
2765
2713
2714
2708
2731
2743
2739
2762
2807
2808
2805
2807
2819
2834
2825
2828
2816
2779
2811
2815
2796
2775
2746
2791
2808
2849
2855
2851
2859
2859
2821
2813
2813
2806
2788
2836
2880
2881
2928
2922
2883
2907
2903
2894
2923
2917
2898
2912
2902
2924
2904
2860
2838
2858
2812
2785
2763
2763
2808
2839
2845
2890
2889
2887
2865
2868
2895
2932
2932
2954
2970
2999
2999
3013
3047
3032
3050
3083
3031
3094
3063
3064
3046
3044
3027
3028
3015
3017
2969
2993
3014
3026
3028
3037
3109
3095
3099
3131
3112
3095
3100
3053
3027
3095
3066
3122
3161
3196
3249
3263
3230
3221
3204
3137
3146
3133
3182
3212
3195
3150
3098
3096
3142
3067
3026
3082
3158
3272
3146
3002
2816
2611
2462
2442
2413
2472
2573
2762
2760
2878
2920
2980
2975
2893
2837
2837
2775
2682
2650
2618
2576
2533
2474
2419
2366
2343
2252
2166
2119
2137
2061
2067
2014
2004
2006
2058
1937
1884
1838
1750
1733
1766
1729
1752
1782
1759
1821
1862
1846
1820
1812
1739
1756
1739
1661
1621
1579
1521
1535
1519
1519
1563
1604
1640
1653
1672
1673
1630
1579
1575
1564
1493
1441
1440
1406
1408
1389
1391
1453
1475
1472
1501
1471
1448
1387
1369
1324
1342
1353
1298
1297
1331
1365
1419
1418
655
71
654
490
478
476
460
544
627
540
562
629
702
797
828
839
876
875
982
920
877
802
903
918
957
911
928
944
1058
1018
1024
1039
1136
1127
1079
956
879
898
885
885
970
969
1074
1074
1128
1127
1089
1056
1156
1057
1015
891
989
967
938
936
1006
1140
1283
1184
1193
1245
1197
1213
1209
1181
1179
1215
1179
1172
1208
1244
1306
1299
1260
1355
1335
1297
1247
1149
1253
1241
1169
1228
1268
1343
1411
1369
1416
1416
1432
1475
1475
1419
1438
1536
1536
1590
1617
1583
1666
1664
1586
1647
1589
1606
1654
1688
1796
1870
1873
1933
1866
1901
2009
2034
2050
2146
2142
2167
2160
2116
2155
2191
2227
2280
2320
2343
2357
2363
2363
2357
2336
2351
2347
2371
2333
2341
2283
2343
2317
2327
2327
2376
2351
2363
2398
2401
2378
2352
2308
2308
2340
2267
2290
2301
2290
2263
2340
2314
2315
2236
2264
2235
2255
2205
2238
2297
2338
2312
2345
2324
2335
2323
2292
2299
2311
2306
2361
2348
2348
2405
2409
2363
2379
2393
2458
2406
2394
2381
2395
2376
2333
2333
2349
2356
2380
2346
2367
2447
2433
2450
2388
2422
2505
2493
2493
2489
2460
2511
2517
2539
2535
2479
2518
2514
2485
2491
2493
2520
2559
2524
2566
2599
2587
2560
2522
2545
2586
2576
2577
2580
2574
2617
2650
2660
2704
2708
2717
2737
2697
2690
2694
2676
2672
2705
2729
2768
2739
2747
2770
2767
2748
2742
2742
2761
2775
2786
2816
2816
2771
2772
2776
2776
2746
2774
2805
2800
2824
2850
2833
2861
2862
2845
2871
2850
2812
2819
2819
2842
2854
2844
2866
2871
2894
2913
2910
2914
2909
2944
2947
2955
2923
2962
2990
3006
2973
2972
2990
2980
2945
2937
2909
2937
2932
2937
2961
2991
2975
2976
2972
2978
2985
3000
2988
3011
3011
3033
3036
3041
3061
3081
3074
3049
3031
3057
3035
3035
3020
2989
2989
3006
3029
3012
3026
3006
3019
3053
3050
3054
3046
3028
3031
3013
3015
2996
2994
2995
3026
3025
3025
3025
3032
3035
3055
3038
3065
3093
3093
3087
3089
3076
3076
3061
3056
3050
3073
3043
3091
3074
3058
3051
3067
3021
3037
3014
3047
3041
3052
3031
2917
2847
2771
2684
2688
2671
2701
2795
2748
2786
2834
2808
2830
2745
2730
2752
2681
2614
2551
2495
2469
2387
2315
2258
2207
2149
2160
2065
2033
1963
1963
1832
1896
1880
1894
1765
1777
1759
1825
1778
1733
1710
1710
1636
1631
1617
1605
1595
1563
1554
1537
1509
1497
1497
1480
1472
1484
1523
1535
1516
1526
1528
1480
1452
1419
1402
1396
1401
1390
1387
1361
1387
1402
1406
1395
1398
1404
1416
1404
1411
1402
1406
1430
1425
1380
1418
1397
1397
1403
1393
1400
1400
1402
1415
663
765
763
814
838
931
887
998
1130
1183
1277
1416
1420
1563
1524
1556
1643
1633
1602
1602
1546
1548
1516
1516
1564
1596
1580
1665
1610
1696
1649
1607
1607
1629
1534
1547
1499
1461
1445
1416
1416
1459
1446
1422
1493
1553
1616
1583
1613
1688
1713
1698
1663
1699
1670
1676
1670
1735
1782
1768
1828
1952
1980
2065
2089
2123
2145
2124
2124
2068
2093
2124
2145
2194
2312
2353
2426
2403
2394
2486
2543
2584
2593
2593
2653
2653
2653
2656
2696
2724
2761
2766
2802
2820
2824
2858
2880
2831
2831
2858
2944
2952
2953
2951
3035
3035
3035
3045
3027
3059
3114
3115
3183
3162
3154
3154
3128
3087
3061
3060
3029
3045
3073
3105
3167
3193
3279
3281
3331
3347
3371
3311
3357
3323
3388
3330
3341
3310
3351
3330
3348
3331
3354
3327
3382
3394
3404
3365
3384
3383
3425
3459
3472
3494
3553
3589
3589
3486
3486
3498
3551
3523
3494
3599
3626
3626
3645
3581
3627
3635
3579
3639
3651
3612
3663
3668
3674
3674
3618
3618
3609
3617
3568
3535
3473
3508
3461
3508
3376
3507
3613
3730
3708
3741
3696
3815
3737
3678
3679
3741
3777
3795
3719
3733
3760
3812
3760
3725
3735
3755
3740
3745
3699
3745
3750
3762
3746
3788
3746
3682
3682
3681
3640
3717
3649
3586
3682
3651
3570
3616
3655
3735
3839
3815
3889
3935
3914
3883
3868
3881
3881
3846
3856
3836
3770
3705
3710
3697
3709
3686
3762
3802
3814
3788
3787
3793
3833
3835
3771
3771
3807
3867
3821
3816
3732
3804
3883
3880
3890
3906
3870
3871
3692
3740
3741
3663
3612
3569
3632
3633
3528
3494
3452
3385
3314
3268
3225
3176
3155
3092
3022
2973
2915
2827
2799
2769
2754
2693
2660
2620
2607
2608
2608
2546
2488
2431
2396
2361
2361
2326
2276
2292
2278
2254
2233
2210
2236
2244
2193
2167
2123
2146
2133
2044
2024
2052
2033
2007
1929
2006
2118
2128
2047
2057
2081
2092
2005
1957
1928
1926
1906
1873
1865
1855
1855
1883
1904
1863
1841
1830
1874
1842
1841
1781
1802
1831
1810
610
1032
1032
1013
1039
1076
1073
1099
1106
1080
1183
1155
1048
1041
1048
1076
1120
1120
1176
1175
1123
1072
1050
1208
1245
1120
1227
1315
1376
1411
1403
1406
1447
1455
1544
1572
1505
1562
1535
1423
1467
1363
1333
1333
1333
1346
1377
1392
1393
1371
1393
1353
1335
1337
1339
1360
1376
1387
1403
1427
1412
1379
1488
1488
1500
1541
1475
1570
1674
1569
1704
1802
1900
1846
1818
1786
1986
1975
1969
1879
1954
2099
2101
2062
2020
1951
1886
1868
1834
1985
1928
1954
2055
2102
2128
2102
2073
2184
2205
2166
2158
2270
2260
2235
2120
2093
2050
2128
2119
2156
2231
2246
2272
2328
2327
2355
2396
2513
2563
2583
2673
2590
2637
2689
2682
2678
2807
2678
2700
2679
2665
2656
2668
2656
2656
2700
2760
2806
2808
2845
2823
2932
2876
2812
2814
2809
2750
2791
2723
2682
2684
2684
2704
2733
2717
2704
2740
2716
2746
2650
2652
2692
2742
2717
2712
2659
2675
2650
2630
2630
2650
2655
2682
2676
2715
2701
2588
2625
2631
2722
2782
2756
2807
2872
2800
2912
2875
2817
2802
2802
2813
2841
2806
2800
2774
2811
2810
2840
2772
2739
2789
2797
2819
2889
2861
2850
2938
2908
2940
2897
2840
2819
2864
2892
2859
2789
2779
2785
2881
2820
2738
2775
2774
2854
2881
2845
2910
2914
2985
3029
3065
3127
3123
3134
3134
3079
3067
2998
2972
2998
2998
2995
3053
3052
3078
3022
3059
3070
3111
3081
2995
3100
3199
3115
3085
3201
3234
3234
3170
3189
3194
3204
3205
3205
3205
3220
3224
3231
3270
3219
3240
3287
3277
3242
3301
3290
3328
3268
3228
3241
3319
3357
3327
3349
3393
3382
3377
3355
3276
3312
3333
3351
3579
3641
3688
3688
3497
3455
3403
3366
3366
3362
3392
3393
3435
3446
3425
3425
3470
3478
3458
3492
3459
3425
3377
3364
3385
3448
3430
3509
3546
3540
3563
3561
3519
3517
3517
3476
3440
3375
3431
3424
3443
3382
3443
3438
3501
3471
3490
3497
3542
3501
3541
3562
3533
3546
3544
3536
3572
3563
3563
3584
3620
3634
3675
3675
3627
3589
3561
3489
3511
3511
3549
3579
3598
3675
3675
3653
3590
3561
3573
3552
3532
3552
3565
3578
3635
3653
3653
3720
3657
3674
3645
3654
3661
3687
3655
3663
3663
3690
3672
3649
3691
3766
3807
3806
3795
3759
3759
3740
3657
3656
3630
3630
3649
3700
3658
3664
3624
3747
3680
3682
3651
3694
3767
3789
3769
3775
3775
3775
3778
3761
3780
3789
3800
3801
3806
3836
3774
3785
3784
3787
3861
3819
3772
3772
3728
3717
3687
3710
3705
3752
3803
3845
3774
3807
3748
3712
3661
3633
3515
3408
3390
3401
3330
3297
3327
3278
3278
3259
3191
3213
3125
3110
3053
3131
3115
3158
3089
3059
2980
3051
2916
2740
2663
2559
2539
2487
2462
2439
2439
2304
2284
2283
2175
2139
2162
2150
2199
2164
2105
2134
2112
2113
2042
1981
1992
1962
1949
1909
1866
1889
1896
1872
1824
1764
1724
1764
1728
1655
1642
1658
1672
1728
1682
1673
1671
1637
1610
1607
1591
1584
1595
1582
1567
1568
1560
1557
1557
1537
1545
1524
1497
1493
1465
1482
1499
1511
1505
1558
1530
1530
1506
1463
1377
1373
1329
1329
1352
1327
1356
1370
1349
1384
1402
1347
1424
1457
1530
1605
918
1039
952
980
957
973
992
991
957
961
989
990
916
877
882
895
834
834
933
978
933
969
969
1017
1045
1092
1065
1124
1181
1180
1190
1153
1148
1148
1110
1092
1020
1024
1007
938
1013
1049
1116
1115
1126
1118
1163
1153
1153
1137
1179
1189
1246
1266
1254
1257
1236
1304
1341
1307
1294
1239
1200
1235
1198
1198
1246
1277
1313
1313
1344
1353
1320
1303
1277
1219
1273
1230
1230
1300
1246
1274
1330
1269
1311
1339
1320
1377
1405
1415
1415
1425
1448
1535
1545
1542
1568
1609
1595
1604
1575
1604
1654
1638
1671
1658
1684
1729
1718
1693
1746
1730
1730
1696
1691
1673
1671
1641
1693
1701
1736
1758
1847
1913
1925
1921
1951
1951
1905
1863
1874
1959
1987
2041
2041
2120
2176
2161
2155
2160
2208
2101
2133
2125
2085
2177
2190
2159
2033
2026
2173
2436
2215
2267
2299
2362
2404
2346
2250
2287
2285
2283
2251
2151
2071
2170
2040
2009
1860
1791
1932
2112
2034
2120
2094
2205
2305
2283
2278
2301
2300
2341
2402
2293
2304
2314
2322
2322
2351
2341
2429
2379
2404
2439
2457
2414
2381
2341
2355
2330
2330
2330
2341
2357
2281
2315
2383
2388
2474
2437
2439
2539
2547
2523
2542
2516
2516
2492
2468
2491
2395
2419
2451
2590
2527
2505
2415
2494
2465
2493
2424
2482
2524
2524
2525
2511
2481
2469
2462
2405
2481
2474
2463
2453
2453
2432
2473
2461
2461
2499
2462
2525
2574
2579
2546
2568
2573
2644
2643
2573
2621
2677
2616
2568
2634
2633
2690
2630
2638
2751
2917
2882
2841
2890
2891
2916
2833
2696
2555
2516
2516
2587
2586
2613
2684
2733
2717
2728
2726
2676
2733
2721
2722
2793
2746
2744
2744
2744
2838
2780
2683
2671
2592
2700
2730
2705
2719
2749
2814
2813
2778
2775
2697
2734
2810
2763
2833
2830
2837
2837
2799
2822
2878
2886
2852
2839
2820
2892
2858
2856
2804
2898
2934
3019
2956
2994
3032
3066
3020
2961
2943
2959
2904
2905
2947
3006
2993
2918
2969
3078
3071
3063
3030
3059
3119
3116
3108
3111
3119
3119
3078
3071
3032
3031
3021
3058
3074
3063
3035
3072
3024
3029
2992
3035
3099
3128
3100
3108
3123
3150
3099
3074
3064
3116
3136
3193
3176
3109
3230
3268
3272
3232
3180
3217
3259
3266
3259
3215
3264
3307
3317
3280
3247
3235
3265
3269
3224
3228
3227
3277
3289
3317
3317
3371
3345
3399
3384
3387
3386
3378
3361
3379
3410
3377
3377
3371
3288
3349
3357
3343
3386
3427
3448
3446
3446
3466
3435
3429
3433
3409
3449
3409
3418
3417
3435
3416
3465
3475
3477
3471
3523
3497
3508
3463
3416
3492
3488
3476
3502
3535
3529
3530
3525
3528
3496
3474
3429
3436
3494
3509
3532
3536
3549
3549
3568
3549
3518
3489
3458
3470
3511
3479
3480
3480
3501
3525
3527
3499
3465
3483
3474
3416
3315
3209
3183
3067
2963
2912
2911
2780
2723
2774
2816
2849
2775
2879
2915
2916
2898
2875
2843
2809
2717
2693
2700
2623
2567
2500
2455
2421
2364
2319
2320
2209
2160
2116
2034
2045
1993
1934
1934
1868
1834
1837
1834
1854
1816
1734
1787
1890
1847
1794
1742
1737
1741
1730
1699
1639
1614
1594
1566
1555
1555
1553
1543
1538
1514
1510
1501
1501
1523
1498
1485
1455
1493
1580
1566
675
369
459
416
496
558
545
597
689
743
822
818
850
935
924
901
970
957
958
931
931
977
1067
1043
1049
1079
1078
1010
993
939
902
902
912
961
1062
1001
1023
1083
1061
1060
1066
1067
1067
1060
1064
1025
1022
993
970
953
926
923
948
966
960
1019
1053
1096
1077
1058
1061
1067
1037
1053
1036
1035
1061
1012
989
1031
1014
1016
1008
990
1036
1063
1053
1063
1083
1095
1104
1092
1080
1115
1159
1131
1153
1199
1230
1236
1254
1226
1226
1243
1229
1217
1210
1210
1267
1291
1303
1308
1361
1390
1345
1346
1386
1422
1449
1478
1516
1516
1539
1544
1542
1549
1521
1499
1514
1493
1507
1504
1540
1563
1590
1576
1622
1614
1610
1627
1635
1683
1738
1761
1816
1817
1883
1859
1802
1859
1868
1879
1898
1885
1918
1971
1951
1995
2032
2088
2086
2125
2137
2180
2196
2225
2243
2252
2251
2251
2272
2273
2296
2302
2304
2333
2333
2352
2359
2359
2377
2380
2407
2440
2418
2386
2381
2381
2420
2400
2414
2427
2427
2467
2477
2481
2521
2518
2550
2577
2571
2596
2619
2661
2653
2665
2618
2658
2650
2664
2600
2650
2638
2662
2670
2643
2632
2660
2664
2701
2707
2684
2722
2759
2750
2741
2730
2744
2765
2748
2748
2772
2842
2820
2876
2881
2863
2817
2816
2796
2827
2764
2734
2789
2851
2851
2854
2858
2884
2932
2945
2996
2970
2968
2966
2953
2898
2872
2857
2868
2868
2921
2921
2922
2969
2999
3120
3150
3202
3270
3283
3285
3201
3203
3120
3045
3039
3053
3051
3080
3062
3099
3171
3168
3131
3131
3133
3154
3152
3102
3120
3165
3165
3141
3140
3173
3191
3185
3194
3191
3208
3208
3223
3219
3216
3199
3246
3277
3281
3232
3312
3322
3283
3282
3231
3247
3247
3210
3198
3193
3231
3254
3196
3235
3223
3224
3234
3200
3200
3192
3177
3171
3162
3163
3188
3228
3220
3217
3250
3266
3252
3177
3178
3178
3200
3189
3199
3278
3293
3257
3310
3272
3251
3253
3253
3241
3240
3217
3184
3160
3157
3143
3193
3245
3211
3269
3301
3300
3293
3197
3122
3096
3014
3043
2999
2962
2970
3065
3065
3155
3057
2997
2905
2779
2632
2539
2518
2505
2503
2657
2791
2864
2863
2922
2872
2894
2841
2800
2812
2820
2815
2792
2724
2711
2750
2695
2648
2583
2583
2559
2566
2538
2481
2464
2359
2366
2396
2259
2198
2150
2154
2154
2000
1907
1944
1966
1962
1928
1983
1943
2008
1886
1855
1792
1732
1663
1715
1691
1709
1667
1729
1735
1779
1735
1658
1603
1578
1528
1529
1516
1531
1552
1571
1564
1547
1507
1519
1476
1388
1388
1471
1502
1549
1537
1601
1618
1552
1539
1515
1469
1435
1380
1307
1339
1363
1288
1282
257
743
736
1231
1386
1454
1406
1534
1534
1475
1579
1578
1501
1447
1545
1591
1530
1372
1090
1264
1394
1154
1191
1094
1402
1474
1387
1400
1538
1491
1543
1475
1494
1366
1448
1328
1397
1104
1592
1430
1572
1441
1314
1315
1493
1467
1315
1287
1155
1296
1187
1229
1198
1262
1174
1175
1266
1317
1275
1302
1290
1309
1413
1315
1291
1159
1232
1349
1349
1228
1243
1382
1421
1380
1341
1312
1405
1337
1313
1480
1475
1440
1511
1375
1375
1362
1363
1357
1330
1271
1321
1386
1387
1404
1445
1685
1886
1779
1894
1860
1886
1889
1946
1946
1910
1944
2058
2182
2251
2258
2227
2226
2202
2239
2225
2185
2303
2420
2461
2447
2404
2396
2397
2324
2225
2266
2295
2326
2242
2332
2365
2545
2502
2466
2475
2489
2465
2532
2531
2469
2514
2535
2551
2586
2548
2538
2582
2545
2517
2554
2483
2414
2289
2331
2390
2491
2457
2536
2578
2613
2646
2725
2750
2835
2820
2847
2857
2833
2843
2833
2823
2868
2813
2802
2822
2808
2835
2855
2839
2859
2868
2872
2859
2814
2831
2908
2899
2900
2923
2961
2999
2966
2967
2935
2946
2941
2906
2879
2943
2894
2955
2945
2952
3035
3048
3045
3074
3063
3061
3125
3068
3132
3084
3078
3130
3134
3091
3080
3107
3127
3186
3188
3188
3160
3151
3131
3161
3151
3108
3169
3218
3293
3224
3197
3195
3276
3299
3239
3239
3292
3329
3363
3329
3351
3378
3356
3391
3372
3400
3468
3439
3463
3478
3492
3525
3515
3500
3523
3526
3553
3552
3529
3492
3495
3494
3495
3495
3514
3568
3577
3513
3507
3518
3459
3484
3484
3448
3467
3479
3526
3515
3508
3493
3538
3507
3491
3417
3478
3473
3500
3501
3574
3593
3593
3577
3567
3537
3481
3481
3518
3576
3591
3595
3587
3642
3630
3594
3607
3666
3676
3700
3651
3634
3658
3707
3639
3656
3667
3676
3703
3678
3662
3694
3716
3673
3651
3653
3672
3678
3638
3619
3648
3648
3648
3634
3593
3622
3622
3640
3673
3657
3658
3671
3671
3676
3671
3720
3764
3818
3801
3830
3796
3773
3737
3693
3650
3677
3609
3645
3633
3637
3667
3704
3676
3740
3711
3737
3731
3781
3743
3759
3757
3741
3787
3779
3767
3750
3792
3775
3847
3737
3712
3587
3584
3575
3625
3609
3648
3658
3677
3721
3776
3758
3771
3829
3803
3814
3831
3830
3849
3855
3856
3863
3878
3830
3778
3695
3609
3488
3726
3591
3588
3630
3655
3824
3862
3724
3678
3535
3573
3485
3285
3194
3258
3168
3174
3173
3134
3151
3177
3153
3154
3089
3166
3248
3190
3146
3144
3209
3295
3262
3223
3235
3195
3196
3084
3060
3060
3065
3001
3001
2985
2985
2900
2797
2718
2701
2624
2581
2619
2585
2587
2507
2235
2290
2276
2241
2192
2121
2307
2314
2199
2107
2033
2038
2067
2019
2011
1976
2009
1947
1849
1815
1833
1803
1776
1797
1797
1814
1794
1721
1708
1720
1686
1508
1498
1496
1540
1549
1597
1706
1718
1712
1608
1468
1371
1316
1419
1405
1439
1386
1378
1527
1517
1403
1489
1290
1398
1544
1530
1564
1601
1548
1649
1651
1588
1455
1401
1391
1418
1383
1480
1494
1526
1547
1570
1490
1437
1487
1510
1487
1489
1358
1270
1439
523
497
520
619
637
599
672
743
748
813
920
1009
1254
1281
1319
1327
1234
1201
1225
1182
1235
1234
1322
1365
1366
1463
1500
1475
1453
1460
1445
1456
1417
1413
1357
1364
1325
1308
1309
1309
1277
1305
1311
1297
1292
1311
1268
1290
1289
1295
1298
1294
1274
1281
1283
1269
1249
1229
1230
1230
1241
1234
1219
1218
1267
1277
1333
1345
1359
1356
1314
1329
1362
1342
1349
1354
1312
1389
1345
1343
1364
1386
1409
1478
1479
1480
1453
1433
1433
1488
1491
1509
1549
1614
1635
1632
1631
1665
1692
1754
1741
1771
1802
1831
1892
1918
1899
1899
1852
1863
1858
1663
1759
1930
2288
2334
2223
2334
2407
2407
2432
2496
2631
2633
2700
2805
2733
2662
2557
2585
2705
2671
2555
2525
2582
2617
2583
2576
2576
2629
2660
2635
2636
2645
2677
2668
2678
2668
2724
2759
2756
2695
2694
2697
2753
2756
2720
2629
2560
2562
2379
2587
2656
2777
2958
3198
3024
3011
2963
2929
2916
2932
2876
2856
2887
2942
2918
2955
2876
2949
2970
2968
2986
3046
3029
3047
3047
3022
3023
2995
2969
2928
2973
2998
3098
3115
3103
3121
3189
3104
3039
3038
3064
3055
3077
3077
3076
3130
3150
3166
3231
3242
3174
3174
3116
3140
3111
3062
3037
3042
3072
3129
3111
3105
3097
3098
3153
3259
3288
3271
3272
3304
3304
3296
3201
3169
3124
3189
3282
3253
3185
3251
3259
3259
3287
3223
3335
3402
3413
3409
3350
3253
3294
3200
3200
3205
3208
3258
3277
3310
3370
3315
3302
3341
3343
3343
3351
3287
3323
3367
3324
3336
3417
3370
3393
3338
3281
3356
3344
3342
3380
3386
3412
3466
3442
3443
3409
3435
3453
3400
3290
3333
3453
3482
3473
3422
3624
3706
3632
3592
3575
3512
3540
3469
3487
3470
3471
3471
3518
3499
3545
3510
3510
3476
3496
3483
3520
3463
3540
3491
3513
3451
3423
3423
3444
3394
3444
3436
3524
3525
3584
3657
3653
3634
3715
3605
3666
3563
3538
3540
3450
3451
3439
3256
3136
2909
2777
2696
2749
2805
2773
2771
2886
3022
3088
3013
2967
2961
2863
2783
2721
2591
2478
2427
2262
2334
2198
2192
2223
2270
2188
2266
2154
2179
2077
2053
2052
2091
2077
2074
2019
2019
2021
1909
1836
1760
1687
1646
1646
1646
1637
1617
1625
1644
1617
1631
1658
1642
1690
1701
1655
1655
1607
1530
1532
1537
1521
1497
1558
1550
1550
1534
1545
1522
1517
1496
1505
1505
1453
1401
1408
1454
574
651
703
795
902
991
1079
1160
1218
1233
1290
1352
1355
1368
1366
1428
1439
1457
1498
1503
1462
1446
1424
1443
1448
1413
1430
1445
1445
1445
1435
1405
1394
1396
1422
1462
1444
1466
1484
1534
1552
1570
1560
1599
1578
1584
1577
1539
1521
1558
1531
1538
1554
1553
1551
1566
1566
1590
1579
1608
1651
1700
1735
1740
1731
1763
1789
1778
1753
1768
1791
1812
1794
1794
1840
1905
1932
1970
1997
2004
2021
1998
2017
2032
2078
2121
2156
2198
2235
2264
2290
2290
2305
2330
2349
2349
2350
2391
2482
2615
2716
2775
2776
2730
2696
2698
2664
2663
2713
2862
2836
2859
2847
2842
2767
2746
2764
2834
2825
2843
2900
2911
2922
2883
2851
2860
2832
2851
2843
2832
2908
2939
2855
2869
2882
2882
2933
2933
2932
2922
2865
2866
2917
2742
2668
2684
2756
2940
2807
2881
2994
3094
3149
3163
3070
3144
3039
3016
2942
2858
2779
2921
2964
2946
2894
2892
3020
3159
3115
3089
3211
3204
3192
3135
3086
3063
3064
2801
2934
2861
2859
2788
2840
3042
3119
2923
3094
3194
3338
3321
3359
3409
3410
3248
3248
3199
3283
3303
3359
3422
3438
3329
3392
3372
3370
3377
3305
3176
3267
3273
3278
3322
3301
3401
3402
3346
3272
3227
3196
3169
3191
3170
3146
3168
3187
3297
3325
3290
3251
3400
3372
3381
3185
3140
3219
3270
3303
3242
3242
3316
3467
3367
3417
3350
3503
3390
3405
3273
3360
3408
3466
3457
3522
3427
3506
3486
3467
3474
3455
3501
3558
3524
3559
3580
3576
3576
3608
3669
3643
3643
3636
3572
3541
3503
3460
3455
3527
3513
3513
3490
3447
3417
3391
3391
3535
3596
3581
3602
3726
3843
3729
3619
3592
3684
3692
3597
3532
3550
3583
3614
3553
3512
3512
3554
3607
3541
3588
3580
3657
3817
3749
3697
3697
3696
3741
3951
3812
3797
3822
3920
3793
3910
3819
3825
3873
3906
3923
3923
3874
3907
3919
3912
3880
3926
3939
3939
3951
3971
3940
3940
3956
3936
3939
3945
3871
3930
3993
3988
3940
3834
3848
3881
3873
3838
3838
3875
3914
3897
3916
3914
3914
3832
3901
3900
3944
3994
3999
4071
4019
3997
3967
3922
3846
3837
3783
3782
3836
3809
3847
3928
3958
3959
3906
3816
3764
3740
3714
3714
3714
3785
3785
3781
3779
3882
3872
3935
3865
3865
3943
4005
3930
3968
3890
3855
3988
4024
3951
3960
3882
3882
3929
3902
3902
3940
3960
4038
4078
4028
4033
4042
4052
4128
4121
4146
4147
4152
4113
4168
4166
4234
4145
4227
4241
4272
4198
4094
4094
4102
4014
3942
3886
3880
3945
3858
3886
3938
3999
4069
4125
4139
4237
4233
4246
4241
4252
4105
4057
4058
4148
4087
4059
4011
4104
4134
4100
4111
4111
4096
4090
4005
3947
3893
3893
3952
3952
4001
4109
4163
4192
4116
4019
4057
3992
3993
3850
3863
3986
3948
3978
3911
3846
3845
3723
3750
3727
3722
3847
3828
3989
4153
4067
4092
4062
4019
4020
3911
3827
3715
3717
3633
3534
3437
3414
3497
3401
3320
3275
3335
3331
3245
3231
3293
3235
3158
3058
2891
2970
2825
2766
2724
2690
2648
2667
2601
2577
2537
2501
2469
2460
2460
2496
2492
2468
2362
2214
2339
2305
2261
2229
2246
2307
2308
2278
2214
2227
2179
2131
2083
2038
2060
2099
2083
2080
2071
2100
2100
2065
2048
2002
1998
1986
1960
1948
1972
1896
1916
1763
1859
1895
1907
1894
2098
2061
2062
2005
1990
1942
1918
1882
1852
1849
1844
1842
1830
1884
1898
1944
1967
1928
1932
1943
1937
1878
1857
1848
1870
1872
1866
1833
1874
1886
1859
1842
1735
1724
260
431
493
505
579
553
553
474
521
568
594
610
665
743
778
805
828
880
869
906
931
984
984
974
966
1000
992
964
1007
929
944
981
962
1081
1085
1067
1118
1150
1165
1205
1210
1232
1194
1208
1177
1148
1119
1108
1122
1076
1069
1115
1118
1110
1142
1125
1150
1145
1112
1117
1112
1080
1025
1009
956
937
936
909
895
979
1028
1116
1185
1112
1178
1178
1142
1135
1097
1090
1097
1071
1076
1051
1040
1051
1077
1090
1099
1130
1181
1244
1252
1229
1299
1356
1360
1348
1313
1310
1323
1303
1312
1274
1287
1222
1233
1290
1338
1361
1482
1577
1697
1687
1688
1677
1685
1693
1648
1708
1770
1835
1853
1765
1814
1925
1838
1882
1987
1961
1972
1986
1933
1965
1829
1746
1812
1814
1819
1887
1968
2082
2077
1969
2015
2012
2072
2000
1870
1962
2059
2129
2119
2002
2110
2218
2191
2268
2234
2265
2374
2331
2331
2421
2266
2293
2219
2163
2125
2073
2061
2065
2064
2087
2097
2116
2119
2156
2156
2145
2095
2054
2081
2120
2109
2143
2155
2100
2125
2124
2149
2247
2266
2326
2422
2462
2366
2323
2287
2246
2217
2193
2172
2176
2218
2194
2208
2213
2246
2261
2240
2222
2222
2209
2211
2080
2144
2169
2282
2309
2472
2401
2407
2388
2397
2336
2353
2352
2370
2392
2357
2356
2396
2371
2324
2345
2382
2415
2403
2338
2435
2525
2525
2513
2421
2491
2574
2558
2512
2471
2471
2514
2474
2382
2290
2374
2397
2376
2420
2559
2610
2649
2625
2581
2583
2497
2455
2497
2478
2477
2464
2502
2501
2518
2483
2459
2427
2513
2504
2529
2490
2519
2505
2556
2513
2512
2549
2520
2587
2595
2621
2653
2565
2529
2570
2578
2556
2569
2587
2673
2723
2711
2711
2693
2655
2656
2604
2561
2562
2513
2514
2514
2533
2543
2573
2566
2607
2602
2602
2663
2735
2762
2806
2820
2820
2795
2757
2757
2686
2635
2617
2703
2663
2644
2573
2663
2753
2680
2692
2694
2749
2715
2735
2717
2776
2731
2764
2733
2798
2779
2759
2782
2776
2776
2803
2785
2784
2701
2702
2642
2608
2610
2586
2632
2757
2712
2749
2764
2709
2743
2815
2771
2724
2782
2790
2791
2783
2770
2818
2852
2772
2821
2824
2879
2863
2896
2849
2934
2892
2991
2917
2908
2895
2895
2867
2852
2835
2817
2788
2788
2769
2761
2762
2749
2757
2717
2716
2791
2797
2916
2869
2887
2957
2915
2808
2869
2817
2905
2918
2912
2901
2940
2900
2901
2847
2871
2836
2841
2738
2804
2816
2906
2924
2953
2957
2956
2931
2829
2829
2867
2882
2896
2996
2977
3007
2922
2926
2906
2889
2900
2899
2855
2815
2815
2791
2806
2790
2784
2800
2866
2799
2865
2867
2919
2901
2949
2933
2931
2890
2890
2856
2867
2855
2822
2853
2838
2886
2845
2860
2852
2885
2862
2873
2840
2858
2810
2814
2802
2818
2812
2848
2808
2840
2837
2829
2809
2805
2800
2798
2800
2805
2793
2815
2819
2796
2603
2484
2352
2313
2244
2244
2405
2527
2608
2665
2670
2702
2686
2562
2582
2605
2572
2601
2456
2563
2698
2753
2753
2751
2734
2754
2729
2708
2621
2586
2585
2569
2542
2558
2584
2605
2377
2410
2407
2701
2686
2591
2498
2498
2467
2467
2469
2414
2381
2357
2358
2285
2192
2125
2087
2052
2009
1977
1933
1923
1915
1944
1916
1858
1870
1827
1780
1723
1715
1748
1784
1707
1707
1687
1701
1638
1576
1584
1667
1688
1678
1592
1566
1566
1476
1430
1441
1498
1537
1563
1584
1556
1579
1528
1472
1472
1317
1347
1364
1357
1249
1348
1339
1339
1362
1358
1319
1367
1373
1248
1248
1197
1205
1219
1260
1247
1339
1339
1391
1371
1332
1339
1326
1341
1324
1282
1285
1265
1237
1255
1246
1200
1152
1150
1207
1151
1095
1085
1113
1094
747
315
311
469
657
554
650
688
710
902
876
877
1048
1073
948
1130
1181
1213
1265
1227
1290
1290
1241
1289
1433
1301
1390
1274
1308
1391
1417
1318
1395
1308
1364
1425
1345
1345
1324
1239
1349
1385
1310
1330
1224
1204
1313
1297
1162
1201
1217
1300
1383
1334
1227
1343
1327
1286
1161
1233
1286
1419
1346
1301
1244
1392
1280
1129
1165
1229
1225
1266
1234
1337
1430
1430
1417
1400
1431
1414
1411
1358
1323
1320
1338
1250
1343
1342
1298
1325
1266
1289
1307
1417
1246
1426
1341
1518
1568
1737
1738
1845
1762
1762
1637
1523
1559
1564
1599
1694
1769
1886
1887
1869
1815
1857
1873
1885
1919
1950
1909
1999
1962
1991
1996
2029
2055
2088
2089
2098
2068
2047
1972
2079
2085
2235
2332
2414
2429
2537
2413
2414
2465
2480
2550
2461
2406
2408
2544
2485
2340
2359
2504
2547
2534
2390
2431
2506
2400
2392
2409
2337
2433
2403
2462
2462
2499
2526
2452
2306
2367
2371
2527
2450
2378
2506
2599
2488
2502
2500
2558
2566
2572
2541
2578
2547
2549
2512
2512
2552
2625
2663
2635
2626
2656
2683
2637
2568
2547
2616
2574
2563
2493
2399
2469
2477
2462
2555
2577
2623
2623
2586
2573
2535
2501
2484
2542
2647
2647
2681
2660
2706
2726
2673
2673
2673
2643
2652
2611
2621
2694
2627
2596
2625
2571
2715
2761
2688
2751
2771
2735
2736
2741
2797
2777
2812
2786
2790
2874
2895
2897
2841
2834
2859
2917
2839
2782
2782
2752
2796
2859
2807
2859
2897
2883
2904
2846
2846
2855
2855
2917
2969
2971
2910
2859
2866
2963
2932
2932
2910
2940
2917
2964
2950
2974
2912
2905
2838
2841
2812
2766
2768
2812
2813
2915
2936
2970
3019
3021
3017
3001
2946
3002
2972
2919
2959
2895
2852
2843
2784
2808
2858
2852
2839
2981
3035
3123
3075
3153
3207
3276
3257
3327
3290
3291
3195
3177
3109
3117
3067
3087
3094
3099
3062
3091
3042
3073
3051
3144
3243
3316
3285
3259
3159
3202
3164
3115
3117
3181
3210
3263
3267
3239
3238
3209
3121
3150
3100
3105
3101
3111
3237
3334
3275
3304
3248
3348
3370
3241
3270
3261
3296
3321
3321
3321
3396
3337
3346
3324
3381
3381
3381
3360
3377
3340
3395
3402
3324
3370
3424
3381
3496
3455
3540
3599
3520
3498
3515
3406
3454
3454
3441
3429
3409
3444
3443
3475
3364
3360
3310
3296
3261
3306
3360
3389
3450
3488
3450
3467
3426
3426
3400
3443
3465
3398
3335
3521
3447
3508
3471
3255
3459
3778
3452
3343
3326
3398
3633
3523
3456
3605
3567
3610
3545
3473
3440
3466
3501
3522
3444
3507
3439
3593
3498
3533
3531
3656
3492
3383
3315
3437
3177
3202
3033
3118
3243
3177
3169
3196
3154
3149
3142
3109
3077
3028
2994
2928
2928
2853
2863
2793
2805
2766
2760
2658
2666
2565
2471
2484
2444
2432
2466
2412
2421
2429
2383
2270
2176
2186
2169
2047
2004
1983
2015
2090
2029
1978
1970
1928
1965
1928
1893
1853
1822
1782
1748
1712
1732
1680
1698
1646
1701
1780
1814
1834
1856
1823
1859
1827
1738
1692
1670
1692
1692
1675
1670
1660
1671
1672
1626
1670
1669
1684
1653
1474
1518
1730
1649
1541
1500
279
142
281
289
325
276
272
272
325
306
315
375
490
568
631
547
644
669
624
651
585
580
654
600
601
625
604
625
613
623
650
663
707
745
746
769
751
749
739
728
706
718
714
714
682
657
652
658
603
604
661
701
746
715
727
752
765
764
793
777
797
829
829
825
803
783
803
788
775
793
788
795
805
797
789
794
774
775
771
771
777
838
841
896
911
912
907
906
841
814
797
816
872
834
870
922
915
881
797
780
814
845
782
789
816
815
784
788
786
813
818
886
886
974
973
929
893
1013
926
1007
907
909
949
998
880
998
1006
1004
1004
964
979
1035
981
968
943
1019
964
967
918
996
1093
1219
1288
1361
1347
1428
1353
1312
1361
1353
1341
1341
1326
1305
1302
1254
1256
1176
1072
1122
1276
1244
1423
1463
1570
1672
1580
1469
1508
1518
1522
1534
1535
1505
1518
1577
1644
1634
1643
1624
1667
1669
1651
1651
1636
1648
1683
1678
1737
1691
1678
1725
1757
1713
1749
1749
1780
1796
1792
1820
1815
1816
1805
1809
1800
1781
1792
1798
1844
1850
1848
1879
1879
1849
1859
1898
1880
1879
1838
1863
1921
1911
1859
1859
1876
1902
1924
1929
1983
1982
1995
1879
1918
1951
1972
1926
2128
2095
2071
2133
2072
2078
2086
2030
2033
2047
2020
2043
2042
2042
2070
2104
2083
2074
2060
2072
2083
2028
2040
2093
2067
2123
2118
2194
2244
2172
2225
2320
2296
2287
2268
2327
2311
2289
2290
2234
2207
2211
2231
2233
2180
2196
2199
2215
2195
2200
2201
2209
2217
2217
2217
2200
2196
2207
2242
2225
2225
2235
2271
2230
2247
2247
2257
2277
2278
2279
2308
2317
2285
2264
2263
2267
2268
2248
2248
2273
2289
2276
2256
2265
2274
2300
2314
2338
2341
2364
2383
2358
2345
2342
2320
2321
2312
2286
2279
2271
2271
2271
2283
2270
2273
2283
2292
2296
2316
2341
2368
2387
2387
2367
2362
2347
2327
2327
2327
2340
2351
2332
2353
2368
2410
2415
2416
2425
2440
2420
2356
2345
2331
2361
2356
2356
2366
2392
2398
2412
2394
2394
2401
2412
2379
2354
2347
2383
2380
2373
2364
2395
2439
2458
2413
2413
2420
2451
2461
2449
2455
2484
2500
2509
2497
2448
2454
2439
2431
2431
2450
2493
2493
2508
2518
2528
2517
2497
2490
2491
2477
2476
2513
2537
2552
2567
2567
2550
2560
2537
2537
2549
2530
2566
2565
2567
2582
2599
2582
2582
2557
2570
2604
2588
2584
2600
2626
2653
2641
2640
2663
2674
2648
2632
2608
2635
2640
2637
2591
2591
2557
2601
2568
2518
2494
2550
2539
2572
2572
2561
2582
2571
2556
2526
2523
2472
2430
2310
2182
2082
2174
2123
2115
2115
2090
2200
2294
2316
2339
2239
2224
2316
2287
2218
2148
2102
2103
2048
1994
1992
1958
1954
1905
1893
1892
1860
1811
1799
1774
1770
1748
1723
1673
1683
1647
1629
1368
1367
1429
1449
1439
1674
1637
1638
1638
1615
1616
1625
1595
1471
1471
1416
1418
1383
1361
1378
1465
1453
1393
1343
1323
1305
1254
1207
1119
1045
1077
1085
1118
1137
1229
1359
1340
1352
1274
1211
1166
1185
1161
1110
1088
1173
1156
1171
1147
1140
1161
1132
1016
1067
1115
1113
1139
1129
1302
1304
1223
1221
1163
1067
1059
1029
1050
990
990
1076
1128
1128
1115
1105
1106
1067
1016
998
993
1005
525
198
202
242
368
397
557
694
760
793
923
1029
1027
1181
1374
1542
1644
1637
1668
1639
1550
1481
1398
1285
1333
1315
1320
1277
1255
1271
1302
1306
1353
1344
1346
1357
1336
1267
1252
1186
1162
1184
1189
1212
1257
1198
1217
1193
1173
1173
1165
1161
1161
1190
1249
1321
1362
1285
1314
1396
1395
1433
1385
1338
1379
1398
1416
1340
1337
1384
1372
1359
1355
1392
1409
1441
1441
1475
1505
1526
1537
1537
1537
1537
1523
1554
1579
1580
1618
1652
1599
1486
1533
1694
1737
1873
1864
1863
2396
2042
1662
1502
1038
1399
1884
1743
1828
2203
2288
2287
2245
2181
2146
2179
2191
2255
2272
2255
2248
2274
2282
2269
2287
2279
2279
2272
2272
2257
2252
2228
2263
2271
2296
2247
2322
2313
2336
2315
2364
2322
2364
2364
2374
2362
2373
2368
2396
2368
2379
2373
2373
2385
2384
2328
2325
2279
2306
2361
2369
2384
2448
2474
2468
2466
2483
2475
2473
2473
2473
2450
2345
2308
2275
2241
2223
2313
2374
2437
2423
2431
2477
2477
2437
2397
2343
2406
2487
2451
2422
2441
2488
2611
2498
2469
2431
2456
2472
2426
2411
2462
2461
2514
2535
2535
2584
2553
2562
2562
2526
2560
2511
2512
2549
2507
2476
2499
2485
2476
2463
2422
2489
2446
2438
2465
2493
2475
2489
2434
2434
2429
2455
2449
2489
2563
2652
2643
2604
2574
2575
2541
2547
2547
2591
2601
2444
2507
2719
2666
2456
2546
2459
2685
2434
2458
2501
2661
2627
2719
2719
2734
2680
2694
2658
2656
2646
2633
2602
2637
2634
2655
2668
2700
2681
2696
2688
2675
2642
2669
2608
2612
2635
2628
2620
2648
2617
2617
2644
2618
2622
2640
2609
2620
2646
2666
2695
2737
2742
2741
2724
2729
2714
2725
2657
2657
2724
2746
2677
2698
2670
2700
2696
2694
2675
2711
2711
2816
2791
2850
2834
2854
2830
2706
2706
2765
2730
2751
2777
2785
2801
2770
2768
2780
2783
2762
2795
2776
2767
2722
2652
2596
2534
2533
2631
2744
2791
2909
2987
2972
2957
2907
2856
2884
2833
2834
2844
2819
2816
2864
2832
2863
2819
2844
2867
2869
2854
2872
2826
2826
2829
2839
2864
2871
2858
2903
2916
2900
2907
2882
2865
2844
2844
2845
2849
2834
2865
2893
2886
2867
2871
2871
2850
2858
2883
2893
2898
2856
2884
2867
2796
2767
2695
2661
2639
2631
2632
2613
2592
2574
2540
2501
2443
2426
2359
2282
2228
2190
2089
2126
2021
1979
1956
1907
1839
1839
1805
1786
1755
1707
1661
1646
1647
1610
1556
1552
1520
1520
1485
1513
1510
1506
1477
1499
1442
1448
1418
1394
1370
1345
1345
1346
1334
1327
1317
1331
1343
1337
1337
1345
1349
1349
1339
1317
1295
562
633
673
673
708
816
882
886
960
1001
1073
1135
1135
1039
1084
1007
945
868
775
838
919
917
1010
1060
1065
1105
1132
1090
1091
1155
1185
1252
1180
1212
1371
1316
1267
1234
1208
1236
1175
1153
1108
1062
1037
1008
972
977
969
971
982
973
966
968
961
968
983
929
951
986
977
967
927
977
1030
1111
1112
1227
1364
1380
1324
1353
1348
1290
1229
1229
1225
1253
1222
1148
1147
1094
1106
1066
1038
1037
1112
1109
1159
1122
1168
1179
1243
1308
1309
1240
1187
1140
1164
1066
1065
1111
1195
1205
1272
1265
1283
1268
1316
1328
1364
1366
1422
1457
1519
1549
1550
1521
1490
1537
1497
1497
1496
1521
1606
1639
1557
1599
1525
1519
1636
1634
1719
1853
1895
2007
2006
1975
1936
1902
1938
1977
1977
1917
1968
2072
2182
2078
1975
1962
2112
2145
2201
2206
2332
2332
2353
2263
2173
2048
2038
2115
2153
2245
2285
2377
2437
2437
2439
2478
2523
2642
2688
2690
2544
2485
2441
2375
2359
2336
2374
2325
2152
2232
2352
2404
2461
2480
2664
2688
2577
2578
2522
2417
2467
2427
2408
2459
2488
2471
2471
2485
2468
2514
2531
2593
2569
2649
2628
2813
2798
2596
2542
2763
2848
2874
2840
2858
2869
2923
2845
2800
2801
2763
2814
2820
2846
2863
2793
2790
2826
2771
2674
2613
2586
2610
2608
2645
2528
2785
2885
2997
3001
2957
3027
3125
3121
3054
3043
3074
3157
3104
3078
3064
3065
2925
2879
2861
2829
2828
2802
2940
3035
3085
3047
3105
3079
3120
3017
3035
2955
3021
3027
3076
3138
3253
3301
3287
3255
3256
3155
3134
3082
3055
3080
3068
3135
3158
3128
3160
3144
3118
3138
3138
3209
3279
3263
3264
3245
3290
3265
3210
3055
3105
3308
3388
3359
3335
3440
3420
3435
3406
3407
3357
3368
3267
3325
3221
3177
3175
3223
3257
3341
3318
3318
3269
3296
3291
3268
3275
3275
3306
3375
3420
3496
3497
3514
3480
3480
3400
3348
3345
3343
3354
3332
3373
3423
3461
3440
3440
3369
3422
3608
3578
3595
3596
3661
3717
3670
3632
3667
3595
3591
3628
3630
3605
3559
3558
3579
3581
3625
3627
3627
3681
3652
3615
3531
3524
3502
3509
3434
3557
3702
3680
3730
3806
3747
3805
3815
3816
3848
3772
3701
3757
3837
3793
3777
3886
3945
3971
3944
3909
3910
3963
3920
3946
3946
3911
3961
3953
3938
3985
3947
3942
3942
3899
3925
3931
3931
3919
3938
3938
3917
3897
3854
3851
3875
3829
3891
3980
3915
4018
4054
4039
4080
4050
3992
3992
4018
3982
3983
4033
3993
4059
4082
4053
4085
4077
4076
4088
4081
4076
4044
4044
4044
4110
4101
4129
4159
4210
4208
4222
4192
4191
4172
4140
4131
4130
4124
4123
4146
4162
4188
4221
4263
4283
4280
4287
4288
4259
4257
4236
4236
4292
4321
4303
4351
4319
4334
4288
4275
4242
4296
4303
4351
4395
4413
4412
4413
4380
4337
4309
4304
4315
4315
4347
4345
4350
4355
4375
4349
4329
4338
4353
4371
4351
4341
4343
4360
4356
4325
4325
4368
4422
4497
4532
4481
4494
4485
4483
4465
4429
4422
4435
4420
4412
4413
4413
4409
4409
4391
4386
4382
4386
4379
4343
4356
4373
4409
4434
4408
4408
4429
4444
4452
4463
4436
4461
4478
4467
4409
4352
4360
4359
4395
4365
4408
4482
4474
4405
4406
4392
4407
4327
4345
4232
4124
4124
3947
3707
3642
3529
3459
3443
3355
3447
3514
3495
3393
3401
3454
3662
3667
3666
3641
3664
3665
3559
3437
3309
3193
3071
2985
2900
2861
2777
2747
2718
2716
2724
2706
2643
2649
2595
2545
2496
2448
2425
2405
2390
2401
2401
2381
2361
2368
2346
2315
2284
2243
2204
2185
2152
2120
2102
2102
2115
2114
2159
2175
2129
2145
2037
2016
2005
1972
1940
1928
1933
1940
1934
1860
1846
1839
1888
1876
1861
1830
1830
1813
1803
1774
1774
1770
1770
1785
1779
1818
1863
1859
1882
1847
1838
1838
1774
1752
1744
1739
1740
1740
1752
1775
1764
1748
1745
1773
1766
1749
1737
1737
1751
1718
1643
1643
1645
1634
1691
1630
1610
1582
1558
906
1135
906
838
856
927
959
991
972
971
1026
1049
982
1049
1048
1081
1132
1253
1323
1345
1348
1349
1333
1429
1382
1381
1460
1527
1574
1645
1623
1625
1567
1511
1484
1484
1583
1623
1627
1641
1680
1719
1676
1613
1589
1589
1574
1628
1649
1668
1629
1612
1690
1721
1681
1687
1623
1657
1675
1641
1655
1667
1668
1687
1691
1738
1738
1732
1764
1746
1760
1741
1690
1661
1688
1627
1518
1502
1536
1587
1667
1674
1730
1730
1749
1795
1805
1876
1882
1870
1898
1898
1823
1823
1805
1893
2023
1910
1981
2192
2191
2279
2280
2252
2316
2316
2318
2294
2314
2217
2175
2158
2195
2186
2186
2098
2274
2443
2526
2611
2375
2220
2600
2600
2549
2537
2561
2751
2749
2651
2584
2580
2580
2597
2596
2569
2530
2589
2537
2544
2581
2537
2552
2643
2574
2717
2730
2613
2617
2720
2590
2593
2546
2594
2602
2469
2469
2627
2699
2663
2706
2912
2912
2931
2944
2918
2952
2956
2928
2928
2863
2817
2834
2821
2821
2851
2915
2835
2844
2837
2829
2809
2808
2793
2794
2787
2836
2965
2905
2853
2783
2922
2913
2957
2907
3065
3121
3196
3086
3158
3046
3039
3039
2989
2919
3006
3013
3046
3003
2925
2909
2987
2975
2975
2986
2983
2978
3055
3070
3032
3049
3012
3085
3110
3106
3061
3129
3068
3067
3085
3076
3144
3120
3136
3210
3217
3162
3163
3125
3168
3161
3133
3126
3047
3103
3066
3099
3091
3069
2972
2928
2937
2953
2926
2953
3077
3178
3245
3192
3231
3172
3204
3202
3183
3133
3106
3105
3102
3153
3074
2974
2824
2797
2768
2917
2917
2971
2819
3116
3217
3208
3167
3124
3025
3064
2969
3018
3017
3097
3037
2990
2852
2953
2808
2643
2638
2593
2601
2647
2571
2507
2537
2469
2442
2430
2392
2379
2363
2364
2399
2360
2346
2225
2228
2379
2348
2251
2234
2194
2218
2161
2130
2101
2094
2081
2076
2054
2029
1979
1987
1969
1946
1923
1908
1908
1909
1910
1864
1875
1847
1870
1843
1805
1803
1757
1685
1701
1590
1712
1821
1803
1820
1969
1917
1986
1898
1812
1790
1789
1822
1815
1818
1835
1825
1844
1958
1890
1871
1808
1839
1954
1937
1886
1957
1973
1973
1956
1391
1153
1237
1209
1130
1027
986
868
786
785
730
763
736
768
869
1006
935
1003
1022
1057
1057
980
972
930
903
764
753
693
808
738
801
879
861
890
944
992
1203
1066
897
1023
970
904
764
751
718
787
821
842
900
973
936
1144
1081
937
853
901
935
1075
995
1070
1088
1088
1049
1041
1020
1018
994
906
996
1000
986
985
981
1040
1137
1079
1141
1221
1206
1350
1293
1185
1186
1177
1140
1172
1137
1113
1148
1208
1221
1287
1361
1350
1351
1428
1560
1473
1474
1445
1556
1568
1516
1440
1492
1535
1577
1600
1677
1540
1680
1723
1632
1602
1663
1499
1540
1532
1524
1490
1599
1584
1707
1750
1890
1918
1918
1879
1793
1810
1886
1878
1907
1877
1858
2034
2036
2036
2056
1988
2045
2107
2030
1999
1949
1950
1961
1943
1922
1921
1876
1906
1887
1902
1902
1923
1948
1978
1977
2005
2000
2045
2025
2082
2043
2061
2056
2061
2023
2027
2015
2041
2018
1977
1997
1966
2027
2074
2100
2151
2196
2127
2176
2148
2128
2127
2092
2070
2085
2074
2041
2000
2005
2044
2072
2115
2147
2153
2170
2171
2152
2156
2138
2137
2164
2193
2217
2206
2195
2235
2232
2227
2215
2237
2252
2286
2253
2219
2231
2244
2237
2226
2226
2255
2269
2287
2260
2286
2326
2332
2331
2363
2332
2332
2300
2315
2315
2296
2242
2279
2344
2397
2376
2390
2369
2392
2384
2393
2392
2399
2385
2437
2436
2451
2446
2446
2449
2454
2447
2482
2473
2449
2437
2432
2432
2455
2454
2458
2480
2475
2463
2463
2410
2381
2393
2388
2393
2401
2419
2454
2477
2473
2494
2540
2545
2540
2540
2540
2476
2434
2393
2370
2368
2368
2368
2440
2490
2622
2718
2719
2749
2793
2851
2784
2675
2649
2699
2670
2671
2630
2642
2675
2627
2625
2638
2633
2648
2647
2656
2674
2677
2666
2641
2669
2670
2639
2617
2623
2614
2622
2638
2614
2621
2638
2643
2698
2720
2706
2741
2750
2820
2750
2701
2739
2796
2817
2835
2816
2871
2880
2872
2847
2831
2837
2856
2838
2845
2845
2832
2860
2880
2871
2887
2864
2856
2879
2868
2858
2869
2872
2864
2866
2870
2894
2917
2938
2962
2962
2957
2931
2897
2771
2787
2825
2920
2896
2936
3078
3078
3028
2996
2968
2975
2931
2937
3004
3026
3035
3064
3035
3035
3066
3047
3009
3003
2990
2983
3016
3020
3025
3012
2983
2991
3014
2989
2970
2976
3007
3006
3000
2975
2971
2992
3000
2994
3032
3039
3043
3077
3092
3098
3080
3080
3115
3137
3115
3135
3184
3202
3206
3228
3229
3251
3236
3205
3211
3201
3200
3193
3159
3144
3150
3141
3137
3135
3111
3105
3135
3115
3116
3141
3134
3183
3238
3216
3241
3222
3250
3256
3251
3259
3259
3265
3266
3265
3262
3220
3205
3227
3221
3243
3243
3265
3266
3266
3278
3297
3287
3292
3296
3320
3342
3318
3303
3317
3307
3291
3289
3262
3262
3273
3273
3283
3307
3324
3346
3342
3359
3342
3337
3331
3340
3348
3368
3363
3363
3383
3393
3382
3403
3396
3365
3365
3360
3346
3337
3337
3352
3382
3410
3377
3396
3425
3418
3419
3422
3398
3425
3412
3377
3389
3377
3385
3373
3351
3401
3400
3372
3343
3344
3424
3453
3447
3484
3499
3492
3449
3446
3431
3427
3384
3269
3270
3144
3079
2922
2760
2717
2699
2729
2796
2820
2820
2877
2894
2883
2834
2828
2781
2736
2683
2662
2644
2582
2557
2487
2513
2443
2400
2313
2247
2177
2122
2051
1971
1914
1863
1794
1780
1760
1722
1697
1671
1667
1667
1667
1660
1641
1624
1618
1582
1604
1538
1525
1490
1443
1420
1416
1402
1410
1402
1409
1418
1423
1413
1393
1390
1390
1364
1359
1338
1302
1291
1233
1272
1279
1270
1253
1300
1256
1301
1277
1274
1264
1288
1275
1275
1257
1234
1191
1204
1196
1170
1222
1184
1226
1253
1221
1186
1199
1182
1182
1164
1159
1165
1056
782
805
820
806
866
866
859
905
954
966
979
934
919
940
901
901
878
822
996
1011
962
1112
1071
1031
1147
1171
1224
1284
1221
1147
1147
1114
1081
980
979
976
875
812
823
882
990
738
786
1038
1133
1198
1137
1082
1141
1037
1048
1010
1014
1047
1072
1084
1108
1076
1146
1099
1073
1148
1156
1145
1170
1145
1167
1140
1187
1211
1379
1416
1384
1418
1416
1365
1386
1386
1386
1408
1423
1466
1498
1538
1438
1549
1583
1625
1575
1579
1546
1632
1669
1670
1677
1744
1791
1791
1863
1886
1906
1959
1956
1997
1997
1965
1972
1910
1870
1873
1872
1951
1967
1846
1938
2092
2169
2162
2130
2212
2213
2176
2177
2146
2156
2286
2286
2417
2464
2456
2457
2438
2420
2426
2373
2330
2302
2313
2312
2298
2295
2295
2312
2313
2289
2361
2352
2311
2266
2316
2364
2423
2346
2376
2398
2344
2330
2343
2304
2298
2243
2291
2433
2440
2441
2500
2491
2567
2447
2407
2459
2405
2404
2509
2545
2634
2748
2725
2703
2640
2648
2630
2655
2614
2586
2563
2499
2512
2552
2552
2559
2622
2724
2724
2765
2749
2723
2758
2696
2696
2731
2730
2726
2723
2721
2722
2679
2653
2653
2653
2633
2636
2676
2712
2687
2717
2740
2815
2748
2739
2737
2875
2876
2832
2791
2852
2825
2880
2842
2807
2772
2809
2747
2774
2715
2716
2723
2763
2757
2753
2755
2791
2855
2867
2880
2856
2855
2868
2835
2775
2825
2831
2884
2922
2929
2879
2943
2877
2866
2858
2861
2866
2899
2899
2934
2933
2890
2874
2895
2908
2928
2933
2983
2984
3046
3014
2988
3004
2983
3027
3061
2913
2947
3150
3116
3168
3100
3077
3155
3047
3001
2963
2945
3005
3086
3054
3108
3123
3139
3134
3170
3131
3115
3064
3094
3113
3174
3172
3244
3274
3238
3239
3171
3159
3159
3159
3137
3107
3177
3267
3232
3236
3170
3159
3217
3206
3186
3240
3216
3266
3297
3272
3285
3277
3257
3289
3315
3328
3376
3336
3360
3380
3381
3345
3324
3314
3355
3356
3343
3318
3331
3336
3326
3326
3347
3370
3372
3372
3381
3399
3397
3404
3402
3402
3431
3415
3410
3399
3340
3362
3421
3447
3456
3500
3524
3527
3547
3491
3453
3493
3453
3432
3445
3467
3461
3471
3441
3480
3504
3479
3479
3480
3477
3495
3492
3501
3522
3522
3505
3550
3549
3545
3540
3501
3496
3550
3563
3547
3549
3569
3579
3579
3505
3377
3377
3378
3346
3331
3446
3523
3555
3600
3598
3641
3674
3674
3693
3706
3695
3684
3687
3671
3687
3682
3678
3693
3701
3714
3732
3732
3725
3733
3736
3727
3722
3709
3732
3741
3710
3708
3718
3736
3751
3756
3781
3809
3780
3783
3748
3765
3747
3711
3714
3739
3741
3756
3769
3773
3781
3834
3820
3809
3844
3827
3863
3758
3759
3771
3773
3741
3793
3758
3780
3746
3736
3721
3735
3748
3765
3772
3813
3832
3840
3844
3837
3843
3828
3821
3800
3806
3810
3785
3782
3786
3746
3754
3744
3704
3712
3714
3746
3770
3736
3741
3752
3723
3722
3719
3709
3711
3699
3704
3698
3716
3698
3697
3679
3688
3658
3640
3659
3677
3687
3682
3576
3481
3375
3199
3125
3052
3030
3011
2971
2894
2894
2858
2764
2693
2656
2653
2688
2749
2658
2637
2565
2543
2587
2491
2481
2484
2452
2416
2403
2350
2346
2300
2232
2173
2173
2139
2151
2132
2139
2148
2145
2070
2071
2041
2003
1981
1948
1908
1879
1879
1858
1829
1787
1787
1813
1691
1719
1717
1745
1831
1755
1635
1717
1655
1613
1538
1539
1560
1622
1629
1667
1679
1696
1697
1688
1620
1442
1485
1485
1450
1551
1542
1563
1562
1531
1513
1554
1577
1540
1532
1530
1506
1508
1497
1508
1503
1504
1504
1514
1492
1484
1458
1487
1491
1507
1498
1513
1508
1509
1519
1539
1548
1518
1482
1427
1462
494
432
492
457
568
520
547
690
804
793
891
914
914
920
918
946
1051
1091
1090
1184
1215
1249
1314
1366
1419
1432
1368
1445
1445
1453
1360
1381
1411
1429
1428
1457
1418
1523
1543
1511
1572
1535
1531
1555
1529
1505
1544
1544
1509
1551
1539
1507
1550
1558
1544
1574
1551
1550
1556
1556
1527
1573
1537
1545
1532
1589
1539
1550
1522
1519
1495
1528
1502
1505
1473
1472
1472
1456
1421
1455
1415
1449
1419
1419
1447
1516
1514
1571
1564
1582
1583
1559
1518
1523
1405
1500
1471
1561
1573
1749
1531
1817
1888
1956
1880
1953
1871
2012
1872
1860
1901
1869
1891
1936
1885
1955
1878
1913
1912
1924
1926
1854
1937
1953
1959
2134
2126
2171
2171
2173
2255
2150
2134
2216
2277
2373
2310
2317
2360
2334
2245
2237
2325
2273
2300
2241
2254
2363
2421
2402
2485
2441
2441
2441
2391
2445
2451
2471
2530
2599
2490
2491
2491
2534
2542
2460
2341
2564
2708
2415
2546
2464
2580
2684
2579
2513
2574
2499
2499
2576
2625
2583
2663
2623
2572
2572
2572
2529
2507
2488
2546
2633
2790
2699
2704
2719
2685
2721
2729
2730
2679
2722
2701
2753
2790
2768
2711
2737
2726
2722
2701
2701
2717
2758
2818
2759
2773
2774
2824
2869
2819
2844
2837
2874
2904
2855
2737
2727
2727
2789
2778
2826
2894
2935
2959
2905
2915
2894
2833
2819
2795
2815
2878
2873
2858
2919
2901
2935
2866
2869
2860
2907
2853
2865
2858
2921
2881
2927
2922
2948
2945
2915
2952
2989
2984
2974
2879
2964
3008
2983
2961
2974
2982
3014
2983
2967
2947
2890
2769
2491
2542
2607
2614
2552
2552
2591
2774
2684
2685
2769
2772
2786
2821
2827
2946
2795
2614
2592
2534
2460
2460
2365
2369
2401
2400
2375
2274
2375
2437
2376
2276
2181
2140
2140
2140
2078
2035
2015
2017
2004
2004
1990
2001
1965
1964
1959
1961
1966
1926
1901
1936
1934
1898
1865
1830
1850
1835
1772
1669
1716
1730
1816
1827
1851
1884
1884
1865
1826
1797
1746
1721
1755
1791
1756
1801
1789
1789
1700
1659
1694
1703
1702
1715
1765
1754
1755
1632
1661
1511
1546
1501
1354
1396
1535
1447
1667
1637
1684
1696
1743
1652
1659
1626
1589
1607
1587
1572
1573
1551
1544
1559
1501
1458
1458
1404
1533
1590
1572
1627
1699
1576
1575
1523
1522
1515
1470
1469
1442
558
444
548
581
718
681
630
615
651
526
522
520
576
676
713
697
739
811
881
888
894
938
937
1015
971
967
1013
1051
1081
1080
1079
1114
1099
1089
1099
1083
1121
1079
1036
1078
1100
1140
1224
1213
1301
1331
1375
1329
1320
1273
1313
1249
1216
1108
1126
1142
1197
1214
1248
1263
1304
1215
1169
1136
1062
1098
1096
1131
1250
1367
1452
1534
1563
1539
1556
1597
1538
1499
1519
1551
1551
1558
1558
1558
1584
1591
1572
1546
1502
1502
1533
1566
1560
1577
1567
1567
1508
1530
1530
1533
1527
1554
1544
1618
1606
1592
1593
1597
1557
1556
1503
1503
1568
1540
1577
1624
1671
1693
1653
1655
1666
1621
1602
1625
1647
1663
1662
1659
1664
1704
1674
1628
1634
1632
1644
1668
1656
1672
1685
1680
1694
1683
1712
1702
1706
1716
1684
1641
1663
1647
1694
1756
1780
1835
1841
1842
1893
1895
1887
1846
1817
1821
1848
1817
1801
1795
1785
1809
1811
1789
1754
1718
1715
1746
1743
1758
1762
1767
1774
1755
1738
1748
1701
1705
1742
1758
1770
1776
1776
1810
1819
1805
1807
1826
1832
1808
1785
1795
1804
1809
1810
1816
1824
1825
1827
1850
1849
1849
1848
1873
1900
1917
1922
1922
1929
1950
1964
1969
1944
1952
1946
1979
1978
1968
1968
1968
1969
1966
1966
1968
1965
1938
1976
2000
2007
1968
1987
1990
2018
1965
1943
1949
1983
1983
1983
1990
2000
2000
1971
1947
1930
1930
1900
1866
1890
1893
1891
1886
1886
1902
1936
1936
1961
2005
2029
2038
2061
2079
2057
2080
2083
2089
2079
2042
2036
2043
2031
2016
1973
1957
1981
1980
2011
2031
2063
2106
2133
2142
2146
2172
2146
2125
2127
2137
2125
2115
2105
2113
2112
2094
2094
2084
2084
2081
2087
2113
2128
2103
2137
2130
2130
2111
2115
2090
2084
2052
2046
1914
1902
1879
1871
1837
1803
1808
1809
1824
1845
1875
1922
1981
2090
2064
2075
2046
1994
1973
1954
1928
1896
1866
1847
1855
1825
1800
1770
1755
1752
1761
1731
1729
1703
1670
1627
1636
1584
1549
1546
1535
1527
1509
1477
1446
1426
1424
1430
1430
1395
1352
1305
1328
1355
1272
1255
1317
1354
1376
1367
1349
1385
1349
1292
1258
1229
1211
1163
1162
1193
1230
1245
1237
1216
1216
1201
1205
1191
1179
1178
1211
1234
1211
1141
1140
1132
1142
1142
1136
1156
1156
1114
1131
1178
1153
1111
1082
1077
1107
1058
1031
1021
1028
1065
1096
1102
1071
1107
1095
1123
1107
1079
1013
1085
1070
1070
1009
970
314
309
477
484
488
487
564
632
633
683
738
876
877
925
937
925
916
949
923
969
923
948
989
983
1041
1111
1084
1145
1154
1163
1191
1140
1100
1096
1074
1079
1038
1040
1047
1078
1088
1101
1078
1052
1085
992
1057
1029
1025
1040
1091
991
1011
981
1015
982
1014
1040
1078
1104
1203
1228
1219
1194
1187
1154
1139
1138
1094
1083
1084
1108
1115
1100
1045
1032
1046
1071
1030
1014
1001
1031
1040
1024
998
1028
1050
1067
1040
1009
1012
1011
972
948
941
953
976
937
919
901
914
885
854
853
879
874
856
862
880
906
969
932
976
1028
1010
1034
1027
977
1000
1033
1032
1043
1062
1047
1060
1088
1027
1054
1021
998
1061
1100
1099
1111
1110
1139
1140
1101
1085
1102
1103
1047
1076
1111
1128
1107
1071
1133
1133
1133
1188
1256
1340
1397
1403
1459
1440
1379
1357
1350
1328
1288
1288
1267
1325
1360
1402
1531
1603
1561
1561
1537
1609
1644
1599
1523
1528
1631
1758
1759
1691
1728
1753
1754
1675
1625
1577
1609
1606
1591
1675
1713
1676
1782
1760
1752
1741
1636
1680
1770
1773
1734
1774
1803
1803
1772
1783
1792
1798
1792
1807
1834
1834
1828
1788
1818
1888
1882
1872
1952
1938
1938
1938
1958
2064
2094
2076
2079
2118
2079
2015
1997
1994
2020
2021
2013
2031
2030
2046
1998
1993
2025
2007
2007
2011
2022
2021
1979
1914
1938
1920
1905
1877
1906
1964
1963
1963
1978
1981
1982
2044
2062
2133
2093
2185
2251
2252
2247
2156
2203
2200
2124
2125
2148
2156
2230
2156
2166
2228
2229
2187
2206
2157
2272
2292
2325
2360
2360
2270
2282
2244
2223
2211
2210
2195
2178
2221
2232
2192
2201
2154
2227
2304
2300
2282
2289
2316
2330
2296
2279
2258
2237
2258
2229
2231
2255
2233
2259
2270
2278
2269
2282
2282
2252
2266
2318
2307
2342
2337
2356
2367
2301
2305
2299
2302
2344
2303
2302
2334
2294
2328
2309
2309
2312
2304
2312
2310
2278
2326
2279
2321
2339
2370
2396
2427
2409
2409
2331
2310
2310
2280
2237
2225
2252
2317
2359
2338
2358
2381
2371
2398
2400
2409
2425
2461
2442
2442
2447
2461
2473
2434
2422
2380
2398
2416
2427
2426
2510
2510
2517
2517
2501
2493
2443
2443
2420
2442
2411
2470
2464
2477
2464
2479
2440
2486
2453
2450
2451
2473
2524
2534
2499
2476
2465
2549
2477
2423
2435
2420
2420
2435
2435
2426
2457
2450
2492
2492
2477
2476
2493
2495
2509
2478
2534
2559
2559
2522
2531
2534
2552
2535
2552
2537
2537
2482
2490
2442
2417
2393
2354
2346
2407
2390
2376
2439
2428
2478
2543
2487
2501
2549
2493
2485
2433
2308
2272
2235
2178
2054
2008
2101
2093
1852
1694
1694
1916
1954
1973
1951
2134
2139
2045
1912
1840
1771
1722
1685
1649
1619
1619
1629
1607
1608
1573
1552
1526
1481
1473
1477
1465
1463
1455
1438
1438
1399
1384
1370
1362
1328
1288
1278
1252
1222
1228
1228
1224
1251
1240
1247
1241
1226
1204
1193
1163
1129
1114
1120
1110
1136
1129
1141
1167
1160
1147
1134
1134
1137
1146
1129
1135
1125
1125
1115
1128
1113
1104
1099
1113
1115
1115
1123
1124
1127
1100
1094
1088
1120
1109
1105
401
206
401
399
481
535
766
811
847
1035
1051
1089
1096
962
1073
1085
1005
1003
1049
1205
1145
1128
1381
1386
1391
1398
1440
1508
1486
1339
1430
1468
1419
1258
1331
1381
1371
1235
1109
1155
1284
1328
1222
1328
1394
1562
1553
1555
1378
1330
1277
1184
1184
1224
1261
1331
1273
1356
1394
1400
1363
1393
1347
1352
1351
1388
1266
1226
1151
1240
1310
1219
1196
1282
1328
1354
1299
1299
1299
1343
1280
1276
1316
1318
1282
1272
1221
1295
1308
1271
1329
1346
1411
1423
1363
1283
1272
1274
1350
1349
1393
1502
1573
1548
1600
1620
1551
1543
1601
1599
1599
1520
1598
1680
1788
1788
1819
1866
1867
1790
1847
1916
1915
1951
1985
2079
2080
2108
2165
2125
2192
2226
2252
2304
2271
2272
2301
2301
2380
2461
2467
2483
2434
2260
2489
2501
2479
2442
2442
2425
2477
2451
2470
2477
2535
2436
2467
2498
2469
2469
2459
2475
2474
2530
2515
2559
2538
2553
2461
2490
2489
2479
2570
2605
2515
2772
2912
2817
2867
2821
2820
2820
2774
2705
2696
2677
2626
2674
2776
2814
2819
2744
2760
2794
2662
2661
2468
2561
2714
2749
2812
2965
2951
3026
2952
2952
2927
2936
2988
2988
2955
2955
2941
2943
2934
2934
2959
2935
2998
2992
3027
3094
3018
3017
3080
3072
3069
3113
3052
3115
3094
3077
3066
3168
3085
3174
3154
3131
3130
3170
3184
3183
2870
2912
3126
3189
3201
3191
3437
3481
3338
3339
3370
3340
3302
3303
3256
3309
3188
3187
3173
3222
3294
3341
3300
3336
3336
3355
3314
3352
3366
3403
3414
3403
3382
3422
3441
3446
3353
3282
3402
3462
3441
3428
3462
3553
3589
3530
3476
3470
3445
3379
3411
3369
3402
3391
3397
3451
3540
3571
3493
3433
3560
3588
3576
3571
3534
3547
3578
3518
3484
3484
3513
3478
3572
3578
3520
3661
3661
3520
3579
3592
3621
3710
3704
3704
3704
3578
3574
3655
3722
3720
3695
3747
3798
3751
3687
3655
3620
3544
3564
3614
3505
3431
3455
3501
3623
3695
3592
3719
3771
3683
3569
3451
3342
3218
3202
3064
2986
2894
2901
2741
2741
2615
2574
2528
2494
2455
2455
2464
2438
2446
2407
2520
2518
2366
2355
2384
2315
2260
2193
2138
2138
2017
1972
1959
1913
1886
1809
1819
1832
1767
1767
1806
1824
1935
1904
1882
1883
1747
1661
1624
1624
1607
1593
1577
1552
1529
1502
1504
1524
1502
1528
1529
1528
1512
1499
1465
1467
1448
1452
1454
1458
1437
1437
1436
1448
1448
1448
1447
1429
1410
1377
1344
1361
1348
1336
1335
1352
1352
1375
1369
1357
1347
1312
1298
1293
1268
1278
1253
1275
1296
1298
1311
1309
1255
1192
1121
1141
1099
1023
1013
955
943
962
928
933
911
882
897
896
871
831
800
781
772
740
730
731
688
645
620
577
575
804
1108
805
899
986
1007
1008
988
988
988
945
1059
997
924
1107
880
946
1017
955
1137
1283
1272
1343
1298
1438
1351
1222
1287
1119
1057
957
956
956
1031
835
983
1011
1042
1043
1100
1126
1218
1145
1152
1202
1201
1183
1136
1057
1165
1146
1186
1181
1178
1187
1228
1174
1203
1169
1121
1120
1256
1178
1160
1156
1314
1275
1294
1282
1266
1306
1312
1277
1311
1310
1165
1145
1298
1288
1203
1273
1416
1654
1666
1653
1652
1674
1821
1844
1734
1887
1966
1964
2044
2066
2140
2237
2237
2218
2257
2295
2309
2355
2375
2335
2375
2344
2270
2282
2281
2281
2356
2357
2452
2494
2511
2512
2512
2526
2583
2565
2528
2524
2502
2564
2624
2621
2587
2621
2627
2651
2587
2589
2561
2561
2593
2644
2652
2676
2626
2683
2763
2728
2717
2690
2689
2748
2702
2691
2728
2788
2804
2810
2764
2754
2777
2743
2713
2723
2737
2730
2761
2748
2726
2806
2860
2895
2850
2824
2792
2854
2853
2826
2772
2810
2817
2903
2908
2880
2904
2943
2928
2911
2891
2846
2901
2871
2849
2824
2869
2817
2858
2804
2867
2878
2879
2897
2927
2878
2901
2899
2920
2968
2949
2951
2967
3004
3021
2976
2962
2978
3020
3040
2999
2988
3013
3029
3055
3041
3009
3003
3002
3045
3023
3065
3063
3121
3101
3102
3069
3100
3071
3074
3057
3083
3071
3088
3088
3114
3149
3131
3128
3155
3134
3075
3082
3105
3143
3132
3120
3153
3195
3166
3118
3118
3163
3188
3223
3192
3243
3280
3266
3261
3194
3194
3194
3154
3179
3177
3232
3248
3145
3227
3306
3266
3305
3204
3226
3278
3269
3227
3248
3208
3233
3256
3278
3227
3237
3245
3293
3303
3330
3320
3327
3339
3374
3404
3404
3419
3414
3369
3335
3278
3204
3260
3244
3230
3298
3342
3400
3400
3366
3330
3391
3310
3231
3252
3328
3339
3401
3402
3481
3535
3515
3469
3470
3522
3452
3393
3373
3379
3416
3416
3385
3411
3440
3438
3454
3422
3422
3453
3442
3470
3446
3447
3463
3506
3502
3478
3466
3530
3487
3525
3497
3483
3499
3526
3503
3510
3484
3520
3509
3540
3497
3478
3538
3534
3496
3510
3455
3455
3468
3468
3439
3471
3445
3502
3477
3488
3412
3371
3236
2997
2876
2786
2744
2793
2792
2992
3090
3173
3206
3206
3165
3085
3023
2959
2895
2895
2864
2744
2744
2680
2602
2519
2409
2359
2369
2288
2197
2197
2155
2113
2057
2009
1971
2006
1959
1899
1848
1833
1833
1833
1776
1725
1708
1695
1718
1707
1722
1718
1751
1735
1718
1660
1596
1610
1594
1509
1551
1587
1573
1572
1544
1500
1562
1561
1538
1571
1605
1583
1562
1563
1521
1531
1531
1492
1470
1463
1448
1460
1444
1422
1408
1431
1411
774
775
725
645
588
599
608
575
542
540
600
640
603
666
603
540
570
558
589
625
631
695
743
705
706
692
731
706
672
638
619
619
646
603
603
644
626
667
700
709
769
690
686
755
697
708
692
690
728
727
687
725
695
702
696
682
654
655
655
641
656
670
727
749
777
807
798
819
750
716
679
670
685
670
670
697
703
714
702
664
642
619
569
616
615
670
678
677
717
761
742
734
718
732
760
738
732
740
720
730
736
720
720
732
732
710
719
740
763
806
820
853
854
848
850
857
852
858
873
885
899
886
883
899
908
932
956
979
1011
1011
1011
1026
1006
1009
1009
995
989
974
958
980
985
1008
1040
1053
1068
1101
1114
1115
1116
1112
1131
1131
1107
1106
1153
1155
1176
1168
1203
1203
1182
1151
1150
1152
1190
1154
1192
1194
1229
1254
1284
1258
1273
1274
1255
1232
1194
1167
1132
1131
1176
1211
1238
1274
1297
1301
1302
1282
1262
1250
1230
1255
1262
1303
1337
1385
1440
1446
1411
1433
1433
1414
1390
1361
1378
1366
1322
1320
1296
1314
1314
1292
1306
1339
1343
1361
1332
1327
1351
1348
1341
1340
1355
1396
1396
1391
1394
1398
1398
1388
1397
1411
1402
1407
1422
1420
1436
1436
1436
1436
1446
1480
1491
1496
1504
1525
1530
1502
1477
1501
1487
1499
1470
1489
1487
1493
1491
1505
1486
1482
1467
1485
1490
1490
1503
1519
1542
1549
1552
1557
1555
1550
1562
1560
1556
1542
1557
1589
1627
1682
1682
1722
1736
1684
1649
1617
1604
1605
1590
1594
1569
1569
1577
1565
1575
1565
1570
1619
1671
1683
1668
1629
1670
1658
1665
1663
1670
1722
1755
1753
1754
1734
1710
1673
1673
1705
1726
1778
1782
1780
1818
1777
1745
1730
1722
1720
1752
1737
1754
1754
1768
1782
1772
1747
1763
1747
1760
1771
1775
1784
1796
1796
1817
1813
1803
1798
1805
1804
1798
1787
1787
1789
1789
1772
1793
1850
1875
1940
1943
1946
1947
1901
1864
1845
1844
1860
1868
1886
1883
1892
1892
1886
1892
1886
1880
1896
1890
1940
2007
1996
2014
2033
2044
2053
1998
1968
1968
1945
1961
1948
1945
1984
1986
1986
1996
1985
2006
2013
1972
1998
2006
2026
2049
2047
2044
2045
2056
2050
2050
2028
2039
2017
2042
2024
2021
2005
2028
2029
2048
2042
2061
2089
2098
2088
2063
2058
2099
2085
2051
2047
2031
2044
2065
2053
2019
2013
2030
2000
2023
2054
2104
2143
2175
2145
2172
2109
2109
2096
2081
2071
2090
2092
2092
2092
2093
2092
2095
2111
2091
2098
2086
2096
2103
2119
2091
2106
2118
2140
2127
2110
2089
2083
2093
2104
2089
2095
2125
2109
2125
2141
2119
2119
2138
2135
2145
2132
2124
2141
2155
2130
2120
2127
2083
2057
2057
2017
1973
1936
1909
1922
1874
1865
1883
1921
1954
1972
1992
2006
2004
1962
1934
1875
1866
1832
1794
1758
1758
1737
1738
1717
1692
1634
1614
1552
1483
1514
1463
1456
1454
1404
1398
1398
1388
1376
1366
1340
1343
1318
1319
1286
1235
1227
1199
1175
1176
1121
1121
1128
1120
1171
1154
1093
1094
1094
1114
1117
1123
1136
1192
1192
1115
1072
1045
1008
1010
970
962
1000
1035
1024
1044
1007
994
1016
958
945
931
928
936
958
959
959
944
961
992
981
989
973
975
982
925
905
889
872
854
843
842
851
848
859
864
870
870
868
860
854
840
840
827
820
820
809
773
820
818
847
852
826
828
334
355
354
340
401
382
392
427
421
426
432
455
440
466
473
542
593
589
595
594
588
603
634
619
613
579
613
621
620
619
648
666
666
643
676
652
626
623
647
663
679
674
674
689
702
702
689
694
666
673
646
654
651
666
667
663
613
686
672
650
630
656
666
672
647
641
666
658
622
640
624
634
649
617
634
665
633
629
638
644
660
659
618
659
675
654
655
664
669
692
691
684
714
721
730
733
727
747
753
752
772
776
783
783
771
783
771
768
771
810
884
892
922
978
978
960
903
872
888
845
845
879
908
994
1013
1030
1048
1048
1051
1076
1053
1095
1095
1112
1091
1077
1085
1122
1133
1177
1202
1206
1207
1219
1193
1192
1185
1175
1174
1177
1161
1185
1173
1215
1254
1285
1284
1233
1254
1227
1233
1211
1200
1214
1231
1231
1240
1241
1252
1256
1270
1265
1258
1269
1258
1269
1235
1246
1317
1341
1345
1352
1324
1324
1284
1265
1265
1253
1243
1250
1254
1261
1279
1296
1321
1349
1349
1354
1344
1343
1361
1357
1345
1339
1315
1327
1311
1296
1270
1270
1301
1302
1296
1299
1288
1284
1277
1276
1277
1277
1286
1292
1280
1281
1281
1261
1358
1363
1370
1391
1354
1263
1263
1265
1249
1224
1246
1195
1216
1178
1177
1211
1191
1131
1167
1176
1188
1133
1094
1097
1099
1070
1056
1029
1010
978
995
993
997
946
931
937
937
931
923
911
906
877
862
863
820
793
793
821
833
835
838
815
835
776
742
744
745
748
785
781
776
788
744
716
694
675
682
679
668
679
670
663
663
650
622
632
592
536
577
825
504
504
691
706
683
656
581
611
640
601
600
679
799
804
912
911
1068
1133
1096
936
1092
969
1181
1039
1077
985
1087
1014
995
990
1086
982
1084
1046
1080
1184
1055
1004
1072
1073
1038
1005
1028
1066
1001
1002
929
918
1026
1046
1068
1135
1007
1082
1160
1144
1027
1062
1098
1156
1109
1135
1073
1151
1193
1195
1198
1236
1256
1310
1318
1275
1305
1368
1384
1410
1458
1507
1573
1687
1734
1751
1797
1790
1805
1847
1824
1866
1891
1883
1896
1905
1919
1927
1955
1979
1994
1996
2016
2034
2034
2013
2013
2026
2045
2046
2040
2075
2076
2061
2075
2075
2072
2105
2125
2141
2168
2191
2209
2239
2231
2255
2310
2310
2313
2298
2322
2348
2287
2287
2320
2327
2379
2321
2313
2336
2279
2318
2326
2285
2326
2326
2335
2381
2400
2385
2400
2401
2414
2392
2352
2325
2376
2402
2414
2404
2441
2456
2530
2519
2515
2492
2527
2503
2533
2500
2517
2541
2560
2546
2558
2579
2579
2568
2540
2535
2529
2500
2492
2509
2486
2505
2513
2498
2548
2550
2534
2550
2599
2572
2574
2543
2525
2571
2600
2569
2589
2627
2651
2652
2646
2658
2643
2613
2626
2637
2679
2686
2658
2685
2689
2684
2684
2681
2668
2672
2671
2671
2662
2632
2611
2611
2639
2642
2664
2661
2688
2692
2689
2652
2653
2672
2677
2649
2675
2664
2692
2669
2695
2690
2760
2724
2706
2677
2701
2698
2706
2643
2638
2709
2689
2679
2655
2624
2693
2737
2681
2679
2677
2677
2707
2679
2631
2637
2645
2638
2649
2649
2612
2658
2672
2643
2679
2602
2564
2480
2506
2600
2541
2608
2565
2657
2710
2636
2639
2640
2606
2605
2561
2524
2552
2511
2510
2489
2482
2482
2465
2411
2454
2459
2467
2600
2627
2601
2605
2468
2434
2371
2295
2255
2230
2231
2203
2182
2182
2149
2124
2086
2046
2060
2026
1989
2019
2092
2137
2151
2058
2004
2004
1891
1803
1761
1745
1691
1624
1625
1617
1619
1532
1513
1552
1567
1594
1593
1632
1641
1656
1675
1661
1647
1601
1624
1557
1589
1551
1543
1595
1591
1533
1532
1529
1518
1513
1528
1535
1549
1548
1558
1553
1572
1507
1507
1514
1538
1521
1515
1491
1488
1458
1413
1402
1382
1356
1356
1393
1397
1450
1474
1517
1563
1554
1458
1571
1546
1520
1402
1382
1387
1460
1458
1440
1386
1440
1498
1437
1483
1430
513
458
457
448
458
445
459
433
427
485
533
561
603
598
657
656
637
640
653
660
629
630
689
709
735
758
779
792
784
781
767
751
736
737
737
752
744
742
757
756
775
774
777
815
818
837
854
841
814
811
775
789
789
784
795
800
785
787
782
771
777
778
782
797
797
802
811
819
808
814
807
850
884
884
879
878
844
863
860
859
889
923
972
1004
1026
1043
1045
1048
1066
1048
1066
1088
1087
1120
1175
1205
1204
1193
1200
1210
1214
1221
1223
1218
1254
1247
1231
1248
1250
1276
1312
1311
1401
1402
1366
1401
1389
1401
1345
1336
1373
1384
1383
1399
1418
1415
1412
1430
1452
1442
1465
1469
1467
1480
1462
1440
1454
1510
1593
1657
1617
1674
1783
1721
1685
1542
1465
1486
1385
1413
1382
1356
1431
1475
1510
1542
1479
1427
1355
1371
1435
1432
1438
1555
1633
1635
1476
1433
1371
1336
1308
1289
1316
1315
1307
1307
1276
1280
1280
1299
1295
1337
1387
1426
1443
1438
1393
1377
1396
1370
1332
1331
1314
1314
1309
1286
1288
1288
1289
1296
1232
1207
1273
1238
1238
1178
1170
1170
1160
1106
1021
964
994
999
1003
905
962
996
1017
959
961
935
950
945
949
928
928
915
922
911
907
898
893
898
906
904
900
892
884
880
861
842
836
829
832
840
832
843
857
847
875
863
828
866
745
701
757
735
751
839
838
892
886
933
982
1044
1045
1006
949
943
887
815
815
848
433
410
472
450
489
509
532
609
678
727
728
786
864
906
919
939
893
939
961
987
956
915
965
997
954
920
878
906
905
916
946
1015
1015
1031
1015
1016
982
924
902
892
892
885
908
913
913
920
915
909
927
925
919
915
878
888
888
900
878
899
895
928
915
893
893
933
929
969
951
989
985
958
919
960
937
937
916
940
961
981
981
976
996
987
989
1013
1044
1063
1115
1127
1157
1176
1179
1189
1239
1280
1286
1339
1322
1373
1457
1474
1537
1575
1602
1617
1621
1607
1677
1596
1597
1565
1555
1628
1612
1549
1587
1656
1656
1716
1714
1797
1818
1848
1883
1883
1798
1765
1789
1818
1828
1869
1935
1941
1942
1907
1851
1859
1856
1804
1823
1833
1891
1884
1884
1940
1976
2018
2048
2039
2076
2040
2032
2078
2104
2097
2196
2292
2320
2263
2209
2139
2183
2110
2075
2090
2061
2061
2127
2086
2095
2161
2144
2182
2258
2175
2234
2145
2101
2112
2129
2116
2169
2198
2210
2255
2239
2248
2253
2228
2222
2223
2203
2213
2198
2224
2225
2225
2246
2288
2299
2280
2272
2323
2275
2292
2280
2260
2312
2304
2257
2315
2276
2291
2353
2320
2389
2389
2394
2439
2385
2384
2447
2462
2499
2452
2443
2489
2424
2439
2419
2478
2451
2428
2385
2410
2410
2379
2308
2379
2513
2529
2557
2526
2502
2502
2404
2404
2394
2388
2387
2415
2443
2411
2416
2484
2474
2433
2487
2469
2534
2558
2513
2587
2587
2561
2525
2502
2502
2525
2499
2499
2479
2524
2506
2451
2481
2545
2545
2596
2675
2708
2771
2698
2695
2745
2651
2592
2523
2509
2567
2598
2599
2561
2602
2602
2550
2551
2534
2577
2608
2590
2658
2739
2661
2658
2582
2551
2552
2540
2539
2573
2579
2632
2632
2668
2664
2664
2737
2738
2741
2765
2757
2743
2659
2658
2631
2647
2642
2714
2748
2795
2738
2738
2743
2737
2686
2624
2645
2694
2776
2733
2719
2715
2770
2779
2732
2706
2727
2792
2816
2854
2797
2870
2877
2868
2858
2858
2759
2809
2732
2756
2807
2808
2859
2968
2937
2946
2910
2859
2848
2904
2799
2856
2880
2944
2984
2945
2945
3023
2970
2896
2886
2899
2922
2915
2914
2931
2965
2945
2946
2946
2975
2972
2995
2981
2973
2953
3027
2962
2936
2962
2965
3030
3069
3032
3033
3076
3075
3102
3076
3011
3043
3080
3088
3056
3010
2974
2900
2846
2821
2800
2766
2627
2703
2851
2746
2694
2635
2541
2574
2476
2400
2352
2273
2219
2168
2097
2037
1960
1878
1828
1775
1721
1657
1653
1649
1585
1514
1525
1588
1553
1491
1451
1407
1407
1372
1368
1386
1388
1367
1384
1404
1365
1321
1246
1246
1208
1242
1196
1188
1182
1182
1159
1172
1159
1179
1169
1163
1163
1190
1203
1225
1203
1191
1197
1212
1183
1130
1133
1115
1104
1083
1063
1093
1093
1056
1050
1049
1022
347
573
339
447
620
713
756
829
778
832
846
845
841
926
1022
1123
1278
1229
1309
1426
1483
1544
1658
1655
1780
1840
1790
1730
1782
1710
1818
1864
1843
1844
1882
1898
1936
1824
1853
1846
1846
1915
1900
1840
1886
1806
1926
1926
1893
1781
1689
1727
1777
1705
1841
1867
1822
1869
1840
1822
1828
1793
1718
1787
1811
1811
1853
1841
1865
1928
1905
1933
1911
1897
1898
1867
1846
1840
1840
1861
1865
1930
1974
1957
1967
1957
2012
2017
1953
1952
2026
2111
2075
2017
2005
2116
2051
1987
1948
2030
2085
2167
2111
2128
2141
2146
2100
2157
2157
2239
2265
2275
2330
2329
2292
2274
2273
2310
2339
2356
2372
2362
2375
2350
2297
2314
2266
2280
2332
2326
2348
2376
2313
2348
2335
2336
2321
2325
2270
2290
2252
2254
2247
2238
2238
2261
2287
2331
2311
2295
2337
2359
2303
2238
2233
2224
2297
2259
2260
2281
2360
2359
2396
2362
2407
2347
2328
2286
2272
2241
2249
2224
2245
2273
2345
2342
2357
2373
2409
2347
2353
2336
2352
2331
2297
2266
2291
2291
2285
2254
2301
2314
2315
2354
2278
2324
2325
2292
2315
2390
2379
2426
2416
2451
2442
2442
2383
2389
2392
2412
2419
2421
2475
2475
2509
2511
2463
2396
2385
2417
2496
2429
2342
2373
2399
2376
2378
2362
2392
2417
2416
2424
2436
2412
2417
2417
2463
2473
2482
2448
2491
2468
2474
2422
2375
2326
2308
2289
2312
2293
2244
2264
2260
2313
2316
2273
2265
2265
2266
2240
2217
2195
2202
2235
2286
2247
2248
2225
2261
2177
2133
2065
2116
2134
2118
2098
2108
2124
2159
2175
2188
2210
2230
2229
2223
2113
2036
2004
1873
1829
1732
1791
1768
1702
1679
1672
1678
1749
1726
1704
1756
1762
1809
1806
1808
1818
1798
1815
1770
1744
1713
1651
1651
1638
1607
1614
1572
1590
1616
1491
1128
521
825
727
762
750
743
743
743
735
765
763
853
893
854
902
925
994
993
993
1038
1096
1134
1212
1196
1270
1266
1316
1343
1334
1360
1361
1361
1368
1346
1329
1280
1286
1336
1208
1218
1202
1213
1307
1297
1229
1254
1215
1198
1184
1125
1125
1137
1155
1100
1154
1186
1276
1225
1248
1269
1273
1200
1117
1012
1031
932
963
976
1082
1097
1184
1239
1283
1268
1200
1066
1171
1199
1182
1223
1232
1203
1203
1163
1147
1084
1006
1005
987
967
881
952
1067
1155
1156
1241
1264
1345
1325
1296
1279
1227
1254
1264
1243
1192
1158
1150
1124
1123
1238
1264
1264
1319
1355
1455
1386
1387
1397
1431
1451
1499
1467
1513
1530
1485
1465
1482
1482
1514
1444
1443
1503
1580
1624
1620
1591
1694
1782
1848
1820
1785
1584
1848
1765
1685
1695
1718
1641
1764
1842
1758
1696
1738
1878
2128
2117
2010
2236
2309
2345
2343
2231
2008
1891
1987
1973
1900
1813
2054
2290
2437
2432
2412
2470
2474
2476
2429
2339
2339
2394
2323
2182
2350
2364
2422
2355
2333
2392
2395
2343
2342
2292
2287
2315
2288
2169
1977
1974
2090
2154
2122
2263
2454
2548
2447
2431
2431
2453
2485
2486
2531
2555
2553
2557
2606
2605
2605
2518
2474
2462
2442
2442
2367
2277
2223
2328
2299
2279
2299
2432
2432
2393
2219
1937
2019
1649
1764
1954
2166
2525
2816
2764
2727
2640
2716
2641
2595
2554
2514
2487
2462
2366
2392
2345
2365
2322
2335
2458
2364
2384
2456
2269
2456
2523
2450
2697
2451
2411
2654
2702
2741
2817
2793
2890
3005
2939
2941
2815
2662
2702
2699
2699
2734
2739
2823
2833
2782
2705
2622
2622
2649
2620
2582
2558
2591
2687
2687
2706
2690
2725
2736
2506
2478
2565
2618
2726
2708
2736
2958
2957
2927
2903
2797
2812
2795
2789
2738
2681
2655
2681
2728
2785
2849
2844
2898
2921
2848
2805
2717
2707
2699
2643
2653
2597
2651
2689
2635
2596
2660
2593
2620
2636
2634
2727
2813
2774
2752
2775
2820
2774
2730
2733
2697
2766
2708
2732
2683
2669
2593
2590
2569
2618
2542
2549
2524
2534
2584
2590
2590
2610
2627
2749
2804
2842
2835
2773
2774
2850
2850
2880
2815
2866
2882
2921
2963
2904
2830
2818
2767
2772
2777
2717
2700
2750
2766
2792
2793
2765
2785
2767
2738
2739
2718
2725
2749
2760
2809
2786
2807
2827
2828
2887
2845
2823
2929
2929
2915
2879
2761
2800
2842
2823
2905
2928
2961
2961
2920
2922
2912
2878
2860
2899
2919
2919
2899
2888
2912
2921
2902
2939
2970
2965
3000
2988
2964
3008
2949
2920
2955
2968
2947
3035
3012
3026
3086
3074
3040
3038
3022
2994
2946
2933
2839
2744
2872
2754
2900
2970
3070
3198
3201
3076
3111
3041
3013
3011
3015
3021
3064
3037
3023
3024
2968
2921
2985
2900
2865
2871
2942
2942
3011
3011
3083
3076
3089
3054
3116
3075
2997
2980
2979
2989
2988
2927
2919
2947
2924
2996
3030
2995
3073
3090
3057
3093
3045
2987
3009
2946
2931
3028
2964
2996
3036
3048
3218
3220
3087
3157
3165
3137
3009
3010
3004
3088
3100
3089
3084
3207
3207
3204
3226
3227
3165
3229
3213
3175
3175
3096
3161
3214
3132
3130
3219
3195
3294
3288
3315
3432
3323
3241
3306
3292
3215
3216
3185
3162
3176
3175
3219
3302
3264
3197
3167
2959
2761
2648
2579
2494
2505
2661
2738
2823
2859
2868
2874
2785
2783
2797
2761
2709
2705
2654
2682
2618
2570
2558
2517
2470
2448
2422
2403
2403
2341
2277
2237
2186
2113
2113
2140
2113
2091
2063
2065
2066
2011
1987
1958
1933
1881
1845
1848
1831
1804
1795
1774
1758
1738
1730
1708
1734
1709
1728
1728
1739
1748
1743
1707
1706
1718
1752
1737
1711
1729
1807
1800
1731
1688
1704
1700
1679
1682
1684
1684
1699
1700
1695
1648
1603
1609
1549
1552
1543
1574
1590
1592
1477
1505
1492
1483
1482
1520
1625
1633
1668
1695
1708
1656
1671
1680
1715
1650
1628
1577
1617
1550
1521
811
935
920
927
1013
1049
1022
1087
1158
1237
1231
1233
1229
1230
1192
1227
1176
1188
1170
1218
1252
1276
1231
1247
1245
1245
1242
1244
1232
1245
1272
1261
1253
1235
1227
1237
1266
1234
1234
1286
1323
1318
1334
1300
1307
1333
1296
1267
1258
1258
1270
1260
1246
1246
1232
1217
1222
1220
1208
1208
1208
1244
1247
1215
1182
1217
1177
1200
1208
1205
1271
1271
1248
1270
1258
1255
1299
1278
1289
1266
1295
1317
1314
1302
1309
1310
1337
1333
1355
1349
1358
1358
1358
1357
1347
1331
1353
1396
1407
1413
1432
1429
1448
1448
1439
1385
1350
1428
1527
1605
1605
1582
1685
1685
1674
1724
1745
1743
1855
1896
1927
1928
1891
1872
1917
1912
1881
1941
1915
1954
2033
2031
2034
2066
2050
2031
2031
2035
2049
2046
2045
2066
2126
2181
2193
2246
2284
2284
2248
2284
2210
2177
2220
2223
2258
2295
2302
2302
2367
2340
2333
2324
2321
2228
2314
2252
2271
2249
2303
2371
2387
2356
2376
2317
2317
2234
2236
2257
2289
2308
2259
2346
2416
2434
2402
2402
2455
2501
2532
2589
2621
2622
2603
2623
2588
2512
2490
2472
2483
2501
2512
2529
2568
2526
2525
2564
2540
2535
2500
2503
2492
2487
2409
2449
2427
2496
2504
2582
2540
2598
2543
2541
2534
2492
2485
2477
2440
2433
2397
2443
2464
2437
2486
2516
2533
2560
2527
2540
2505
2489
2474
2466
2481
2466
2453
2454
2531
2530
2538
2539
2619
2641
2641
2662
2526
2560
2523
2460
2497
2556
2560
2597
2567
2613
2658
2581
2624
2517
2551
2582
2561
2523
2557
2528
2545
2546
2546
2523
2508
2496
2431
2447
2450
2476
2487
2543
2516
2517
2570
2556
2582
2576
2508
2586
2615
2562
2558
2556
2534
2552
2558
2547
2535
2535
2530
2570
2581
2556
2548
2552
2590
2529
2502
2473
2519
2504
2531
2492
2531
2570
2571
2565
2627
2574
2629
2579
2560
2576
2586
2599
2599
2555
2603
2646
2623
2632
2599
2613
2648
2637
2587
2625
2588
2593
2580
2537
2561
2564
2538
2582
2573
2567
2622
2622
2630
2617
2645
2698
2698
2674
2612
2646
2633
2621
2611
2670
2715
2750
2743
2734
2760
2757
2717
2682
2636
2702
2716
2707
2757
2858
2907
2909
2841
2766
2753
2730
2730
2738
2738
2747
2734
2783
2781
2822
2831
2826
2848
2844
2896
2874
2851
2859
2853
2847
2863
2863
2848
2827
2848
2901
2924
2941
2910
2918
2918
2930
2893
2884
2840
2839
2859
2843
2811
2801
2799
2823
2868
2882
2941
3040
3016
2994
2975
2983
2944
2852
2852
2790
2870
2968
3008
3053
3195
3192
3197
3160
3081
3064
3086
3060
3007
2944
2961
3002
2925
2853
2743
2675
2675
2704
2639
2614
2639
2660
2663
2656
2611
2592
2579
2617
2638
2709
2681
2681
2664
2722
2670
2628
2562
2529
2573
2527
2494
2459
2416
2450
2419
2366
2356
2297
2250
2198
2150
2111
2133
2108
2096
2076
2049
2024
2021
1973
1916
1905
1905
1912
1870
1848
1861
1862
1849
1785
1729
1693
1632
1627
1609
1593
1627
1675
1663
1676
1627
1617
1595
1573
1573
1607
1637
1589
1589
1578
1563
1565
1576
1508
1572
1597
1613
1615
1553
1495
1465
1465
1515
1540
1563
1583
1670
1670
1630
1581
1518
1515
1506
1477
1477
1425
1362
1319
1274
1312
1310
1368
1440
678
142
687
855
787
878
892
828
949
949
849
920
918
928
1058
1188
1006
1096
1198
1273
1328
1194
1143
1226
1274
1151
1133
1208
1209
1308
1359
1278
1349
1326
1212
1242
1176
1153
1107
1136
1148
1207
1213
1202
1163
1174
1165
1111
1058
1074
1054
1040
1083
1057
1064
1094
1038
972
1093
1039
993
990
953
992
1092
1071
1118
1199
1206
1208
1171
1149
1084
1054
969
988
908
1033
969
929
1060
1207
1078
1164
1002
988
1198
1043
962
1153
1177
1190
1302
952
930
1206
1201
1049
1115
1063
1194
1198
1136
1099
1176
1139
1112
1131
1089
1110
1171
1188
1188
1287
1266
1266
1188
1168
1167
1209
1167
1145
1246
1334
1322
1322
1354
1346
1350
1430
1478
1492
1341
1162
1259
1523
1495
1476
1450
1630
1752
1541
1400
1313
1324
1404
1426
1402
1391
1466
1627
1566
1603
1690
1764
1897
1871
1873
1873
1922
1978
1994
2003
1949
1893
1855
1855
1904
1907
1907
1972
2108
2109
2109
2059
2007
1955
1985
1814
1945
1919
1872
1916
2018
1915
1998
2053
1974
1948
1883
1979
2129
2066
2135
2050
2133
2395
2366
2311
2271
2206
2251
2214
2156
2087
2112
2168
2159
2143
2118
2116
2183
2142
2101
2141
2152
2134
2135
2106
2037
2059
2144
2205
2269
2359
2346
2348
2287
2244
2190
2142
2123
2160
2174
2176
2150
2176
2199
2144
2179
2233
2221
2303
2303
2324
2324
2268
2230
2248
2197
2212
2158
2241
2283
2316
2205
2186
2234
2390
2402
2261
2268
2361
2284
2233
2182
2151
2151
2039
2039
2113
2099
2100
2050
2208
2210
2210
2197
2202
2208
2231
2234
2234
2158
2125
2194
2204
2212
2150
2141
2193
2323
2221
2258
2256
2230
2232
2238
2207
2271
2240
2193
2208
2208
2230
2306
2274
2269
2360
2363
2362
2276
2232
2188
2173
2157
2096
2028
2075
2132
2161
2154
2147
2203
2205
2133
2138
2125
2106
2118
2101
2102
2125
2128
2071
2151
2094
2150
2199
2309
2401
2443
2421
2436
2437
2352
2257
2228
2229
2174
2173
2156
2142
2178
2191
2119
2150
2141
2157
2143
2142
2125
2161
2220
2281
2246
2286
2272
2272
2208
2179
2179
2167
2162
2147
2213
2180
2237
2220
2278
2277
2271
2251
2241
2221
2151
2152
2283
2333
2325
2384
2376
2415
2267
2230
2187
2206
2150
2174
2163
2198
2246
2313
2221
2372
2495
2567
2512
2447
2435
2435
2330
2249
2256
2265
2281
2295
2345
2337
2335
2279
2265
2354
2395
2360
2349
2389
2350
2379
2330
2280
2318
2325
2342
2335
2362
2369
2461
2371
2420
2415
2494
2512
2523
2523
2523
2492
2498
2461
2432
2440
2439
2489
2496
2542
2600
2613
2615
2581
2519
2536
2533
2487
2484
2482
2527
2564
2554
2529
2541
2528
2528
2488
2480
2473
2528
2527
2568
2612
2625
2632
2678
2776
2813
2813
2782
2761
2761
2668
2669
2582
2541
2517
2547
2599
2580
2562
2599
2610
2644
2667
2639
2649
2624
2620
2620
2583
2560
2568
2567
2552
2532
2539
2562
2571
2576
2557
2585
2585
2578
2558
2548
2542
2549
2552
2610
2671
2721
2743
2731
2726
2749
2715
2711
2686
2663
2631
2624
2625
2660
2635
2651
2657
2651
2663
2630
2603
2583
2583
2562
2547
2521
2520
2519
2510
2463
2459
2478
2432
2384
2192
2043
1994
2018
1979
2008
2105
2242
2289
2309
2301
2256
2272
2296
2274
2259
2260
2244
2244
2195
2148
2063
1959
1948
1911
1898
1828
1833
1858
1883
1845
1798
1765
1790
1769
1736
1669
1657
1597
1544
1487
1457
1423
1410
1410
1386
1398
1453
1457
1489
1495
1449
1449
1376
1290
1308
1283
1260
1278
1301
1295
1293
1282
1301
1340
1340
1372
1394
1394
1423
1379
1373
1373
1368
1385
1452
1442
1442
1484
1480
1496
1473
1421
1390
1390
1368
1347
1332
1316
1336
1347
1347
1314
1284
1270
1268
1261
1260
1255
1250
1246
1253
1239
1228
1228
1222
1232
1220
1223
1204
1205
1204
1218
1218
1216
1228
1228
1227
1230
1247
1266
362
715
615
665
701
708
739
739
736
777
777
732
753
751
789
874
952
933
932
1010
844
875
804
807
967
1107
919
1062
1143
1200
1075
935
1023
1147
1178
1065
1124
1122
1159
997
868
1017
1108
873
956
1009
1139
1174
1118
1065
1123
1175
1175
1226
1205
1255
1274
1238
1180
1180
1084
1117
1113
1131
1093
1195
1182
1207
1265
1237
1121
1191
1129
1174
1201
1175
1174
1202
1174
1173
1158
1155
1175
1189
1168
1195
1233
1279
1329
1315
1378
1452
1477
1486
1418
1352
1377
1373
1306
1304
1260
1290
1331
1413
1384
1441
1469
1581
1616
1617
1574
1618
1686
1675
1555
1646
1756
1802
1682
1608
1731
1799
1822
1802
1846
1983
2013
1989
1960
1964
1991
2018
2062
2074
2067
2116
2080
2088
2034
2063
2007
2102
2143
2164
2226
2226
2186
2189
2099
2146
2230
2230
2260
2229
2213
2233
2181
2133
2100
2103
2141
2172
2195
2188
2227
2256
2263
2265
2265
2304
2247
2250
2244
2266
2343
2348
2354
2366
2371
2380
2368
2380
2388
2365
2330
2328
2293
2326
2278
2268
2308
2334
2378
2378
2306
2341
2359
2371
2343
2283
2317
2386
2405
2431
2376
2321
2399
2425
2417
2384
2368
2306
2393
2355
2282
2279
2290
2283
2348
2364
2378
2402
2369
2342
2377
2357
2309
2359
2342
2393
2460
2450
2415
2482
2473
2505
2484
2413
2413
2413
2333
2318
2321
2321
2362
2362
2380
2414
2470
2461
2487
2500
2507
2508
2508
2452
2439
2361
2422
2366
2365
2376
2346
2353
2441
2393
2472
2559
2496
2547
2579
2540
2580
2534
2515
2549
2567
2559
2629
2559
2584
2615
2607
2584
2610
2532
2624
2666
2650
2667
2724
2688
2696
2682
2685
2688
2729
2675
2693
2612
2637
2554
2570
2612
2673
2654
2789
2762
2769
2769
2661
2711
2687
2603
2662
2643
2614
2680
2666
2713
2752
2767
2761
2778
2812
2805
2771
2834
2810
2810
2835
2782
2829
2880
2834
2867
2857
2846
2845
2845
2860
2872
2847
2890
2876
2907
2893
2903
2919
2924
2944
2947
2946
2962
2963
2977
2970
2944
2947
2976
2953
2964
2969
2994
2990
3020
3025
3080
3082
3103
3072
3085
3084
3084
3082
3101
3097
3134
3110
3110
3108
3082
3048
3014
2938
2983
3025
3001
3031
3071
3101
3101
3098
3067
3079
3023
3002
2910
2856
2744
2649
2579
2446
2455
2318
2237
2162
2155
2171
2227
2234
2293
2345
2373
2393
2336
2320
2292
2267
2250
2187
2130
2113
2058
2112
2098
2016
2005
1979
1961
1959
1886
1873
1847
1801
1741
1694
1629
1580
1537
1524
1487
1470
1450
1410
1377
1354
1329
1346
1298
1290
1306
1290
1271
1292
1294
1314
1300
1295
1319
1351
1333
1327
1310
1307
1307
1288
1288
1285
1277
1243
1256
1243
1316
1279
1270
1316
1317
1294
1295
1257
1278
1281
1233
1169
1200
1144
1170
1170
1166
1152
1191
1113
1212
1213
1151
1190
1227
1270
1356
1256
1342
1488
1449
1427
1427
1371
1371
1313
426
539
539
587
556
572
587
587
578
579
558
571
565
581
581
589
651
731
790
760
647
657
658
657
488
422
483
723
808
854
832
837
889
1006
959
933
905
829
904
957
895
853
847
935
929
883
871
853
829
854
790
851
814
770
802
855
929
942
846
857
863
935
883
792
809
906
874
918
862
910
914
889
889
890
847
843
820
858
893
867
906
898
865
902
916
887
886
906
952
931
947
956
973
980
973
948
989
936
935
1019
1028
1007
1033
1015
1051
1015
1006
1017
1063
1025
1063
1079
1054
1074
1125
1166
1230
1292
1350
1427
1438
1450
1458
1459
1470
1548
1601
1665
1714
1791
1793
1793
1784
1753
1743
1745
1746
1759
1760
1809
1830
1822
1823
1785
1794
1794
1731
1724
1766
1845
1890
1899
1819
1907
1960
1962
1900
1855
1837
1878
1846
1847
1809
1852
1903
1926
1945
1950
1950
1990
1961
1929
1954
1927
1979
1973
1913
1974
2002
1989
1919
1940
1981
2061
2005
1982
1980
2032
2025
2016
2038
2045
2060
2061
2033
2022
2014
2009
2043
2026
2023
2020
2043
2072
2066
2042
2070
2065
2073
2064
2072
2097
2122
2082
2091
2103
2103
2075
2065
2086
2115
2126
2155
2111
2156
2148
2132
2123
2121
2117
2135
2118
2106
2137
2161
2176
2202
2172
2232
2233
2185
2203
2173
2221
2231
2210
2246
2251
2182
2225
2201
2225
2233
2233
2283
2305
2302
2315
2279
2287
2275
2275
2282
2254
2253
2234
2327
2377
2368
2326
2377
2418
2460
2419
2369
2364
2404
2385
2358
2324
2296
2298
2328
2304
2286
2257
2231
2268
2240
2247
2296
2344
2357
2415
2369
2387
2344
2318
2304
2343
2339
2366
2395
2398
2398
2376
2371
2348
2317
2308
2302
2314
2301
2291
2291
2273
2262
2261
2252
2250
2283
2283
2287
2297
2315
2329
2342
2344
2369
2366
2405
2410
2392
2374
2370
2324
2352
2315
2347
2344
2351
2338
2369
2349
2387
2356
2338
2340
2339
2339
2352
2335
2333
2292
2314
2237
2129
2129
2037
1916
1903
1800
1814
1744
1726
1711
1673
1664
1681
1626
1612
1583
1537
1505
1478
1437
1396
1349
1327
1278
1269
1249
1248
1249
1238
1215
1216
1198
1168
1119
1157
1150
1131
1088
1098
1142
1079
1044
1084
1110
1230
1189
1156
1180
1195
1166
1115
1061
1098
1133
1114
1063
989
1016
1080
1035
969
1013
1002
1042
1041
978
1017
1011
1002
1002
977
967
920
920
850
836
966
955
924
960
899
312
760
573
548
569
608
629
650
650
688
727
744
773
781
789
776
773
771
847
945
998
1062
1124
1144
1138
1105
1051
1011
950
874
873
825
820
819
868
836
882
903
945
925
919
885
948
930
933
975
1029
1087
1090
1072
1069
1053
1009
945
944
944
968
939
971
1041
1053
1031
998
999
1010
953
937
931
895
872
827
812
770
811
809
806
767
798
838
897
926
896
960
988
1007
1000
986
968
946
969
953
932
914
900
899
946
918
943
971
987
1030
1044
1054
1070
1069
1082
1127
1130
1131
1049
1083
1106
1029
1077
1165
1229
1375
1403
1293
1404
1274
1262
1311
1311
1314
1403
1399
1417
1435
1495
1537
1603
1628
1606
1607
1638
1639
1573
1601
1629
1718
1763
1763
1686
1682
1611
1560
1518
1552
1529
1552
1610
1649
1649
1698
1676
1713
1766
1775
1754
1755
1705
1701
1712
1710
1734
1782
1781
1788
1825
1795
1759
1762
1780
1822
1876
1938
1942
2001
1960
1966
1972
1962
1937
1937
1924
1887
1867
1877
1874
1907
1983
2039
2082
2083
2107
2038
1975
1894
1818
1679
1740
1734
1798
1877
1980
2166
2147
2124
2125
2042
2008
1927
1883
1883
1881
1911
1910
1915
1912
1926
1888
1917
2044
2150
2149
2194
2286
2298
2247
2195
2169
2166
2179
2137
2081
2081
2130
2130
2156
2161
2162
2196
2195
2146
2155
2173
2148
2213
2183
2148
2175
2121
2112
2202
2159
2141
2173
2148
2228
2173
2119
1979
2090
2097
2173
2137
2372
2460
2541
2443
2390
2292
2344
2328
2273
2273
2358
2421
2458
2462
2433
2446
2455
2455
2408
2369
2341
2380
2338
2337
2347
2460
2540
2646
2674
2670
2632
2587
2460
2469
2492
2453
2459
2526
2660
2675
2642
2581
2546
2547
2481
2441
2436
2401
2412
2432
2434
2466
2510
2503
2516
2526
2501
2509
2521
2505
2493
2512
2492
2485
2497
2478
2455
2455
2455
2481
2502
2512
2534
2556
2556
2559
2543
2521
2418
2419
2424
2469
2483
2486
2542
2543
2475
2427
2348
2314
2324
2298
2262
2235
2207
2235
2234
2274
2304
2356
2400
2427
2424
2448
2468
2435
2407
2389
2358
2367
2323
2276
2263
2264
2240
2240
2261
2317
2363
2367
2398
2449
2459
2441
2425
2431
2449
2402
2366
2332
2301
2285
2265
2265
2227
2182
2195
2219
2348
2353
2338
2376
2398
2399
2372
2353
2358
2422
2396
2405
2457
2427
2420
2433
2404
2432
2478
2556
2551
2529
2530
2531
2462
2382
2337
2305
2301
2300
2329
2337
2348
2395
2413
2421
2421
2425
2470
2461
2436
2427
2501
2524
2549
2504
2540
2617
2617
2574
2513
2473
2465
2431
2376
2375
2399
2398
2441
2502
2574
2616
2652
2671
2671
2631
2606
2593
2533
2474
2436
2440
2467
2522
2560
2610
2638
2620
2654
2593
2549
2549
2561
2614
2631
2667
2690
2704
2692
2702
2677
2658
2634
2590
2589
2650
2659
2715
2789
2890
2919
2864
2883
2899
2932
2966
2940
2930
2930
2858
2888
2871
2831
2871
2874
2899
2891
2877
2885
2892
2884
2871
2863
2852
2806
2805
2836
2839
2892
2987
3030
3033
3011
3013
3071
3042
2972
2989
2976
2999
2957
2954
2954
2954
2938
2924
2955
2989
2939
2939
2984
2978
3032
2944
2978
2995
3015
3014
3086
3139
3227
3181
3299
3257
3174
3053
2873
2923
3016
2979
3020
3058
3154
3185
3186
3145
3102
3082
3113
3114
3116
3084
3062
3048
3012
2985
2980
2915
2932
2912
2816
2772
2655
2584
2644
2544
2504
2497
2472
2466
2452
2420
2421
2411
2378
2305
2325
2233
2181
2129
2058
2021
2000
1922
1866
1831
1791
1755
1707
1663
1644
1644
1634
1612
1591
1552
1552
1446
1447
1457
1486
1432
1447
1489
1523
1447
1447
1425
1453
1439
1428
1421
1421
1383
1358
1314
1351
1334
1333
1343
1357
1413
1449
1413
1413
1396
1386
1398
1387
1370
1350
1351
1303
1265
1229
1169
1115
1133
1132
1189
1226
484
1035
485
451
605
592
616
694
677
766
752
709
787
797
720
776
782
909
984
954
1008
1009
913
863
849
865
930
944
1062
1085
1082
1109
1040
997
957
939
939
940
894
854
817
802
810
796
840
888
922
945
945
931
927
940
956
940
893
920
945
961
919
898
853
895
873
773
778
865
834
943
943
962
984
991
1016
1036
1008
1017
1017
1001
1034
985
912
921
921
991
1007
989
981
982
1007
1011
996
1041
952
945
1052
1038
1010
1050
958
1027
1075
1068
1045
976
879
942
962
953
996
911
1061
1234
1212
1294
1413
1454
1496
1517
1459
1461
1420
1348
1316
1316
1323
1299
1310
1325
1364
1310
1354
1385
1444
1442
1420
1347
1419
1460
1464
1458
1474
1512
1551
1563
1550
1512
1547
1548
1585
1567
1553
1565
1573
1535
1513
1513
1606
1710
1602
1589
1625
1837
1809
1878
1574
1494
1651
1779
1716
1735
1742
2120
2123
2052
1997
1921
1923
1923
1956
1993
2051
2166
2210
2211
2120
2001
1914
1837
1916
1915
1971
2060
2191
2338
2339
2198
2231
2267
2276
2230
2226
2282
2282
2260
2222
2108
2154
2153
2193
2287
2258
2243
2265
2223
2191
2190
2185
2188
2182
2172
2148
2140
2107
2079
2016
1954
1967
2035
2032
2089
1858
1733
2125
2044
2140
2211
2283
2506
2621
2432
2435
2363
2336
2254
2205
2198
2238
2238
2239
2190
2170
2151
2195
2197
2206
2174
2197
2197
2237
2196
2160
2148
2146
2140
2169
2099
2144
2102
1915
1920
2070
2145
2221
2191
2384
2384
2311
2207
2180
2162
2162
2141
2138
2165
2165
2174
2176
2148
2174
2182
2182
2209
2209
2209
2192
2154
2153
2160
2149
2122
2167
2208
2254
2223
2213
2218
2219
2106
1821
1714
1711
1780
1869
1992
2272
2455
2457
2380
2362
2265
2301
2298
2294
2307
2349
2300
2283
2217
2239
2172
2169
2160
2141
2181
2203
2169
2170
2200
2142
2132
2148
2171
2199
2246
2164
2204
2191
2177
2177
2185
2210
2216
2118
1986
1999
2015
2126
2147
2382
2657
2633
2547
2603
2511
2535
2467
2450
2446
2422
2352
2324
2275
2276
2305
2305
2301
2327
2335
2347
2379
2384
2385
2357
2373
2361
2362
2374
2325
2316
2308
2327
2335
2377
2286
2275
2320
2336
2334
2355
2290
2290
2327
2324
2039
2025
1668
2025
2542
2664
2758
3125
2917
2920
2808
2811
2687
2657
2582
2557
2558
2493
2488
2495
2495
2510
2515
2595
2660
2645
2651
2604
2547
2484
2432
2431
2470
2446
2496
2539
2601
2665
2598
2519
2561
2602
2653
2635
2611
2672
2673
2710
2595
2573
2637
2684
2680
2721
2652
2734
2738
2691
2627
2610
2611
2552
2527
2551
2545
2543
2594
2582
2652
2695
2630
2606
2536
2421
2442
2408
2344
2324
2290
2307
2307
2274
2261
2249
2220
2205
2171
2159
2104
2087
2096
2097
2070
2083
2121
2146
2152
2066
1972
2081
2125
2065
2071
2001
2030
2055
1959
1836
1841
1766
1793
1793
1787
1762
1763
1672
1733
1722
1719
1695
1684
1702
1703
1646
1630
1586
1533
1499
1502
1523
1496
1460
1470
1504
1503
1446
1387
1347
1352
1310
1271
1271
1285
1244
1257
1263
1263
1332
1351
1337
1379
1427
1417
1379
1360
1312
1347
1316
1303
1280
1286
1274
1268
1259
1271
1235
1241
1249
1232
1218
1180
1129
1128
183
297
289
594
719
735
698
713
729
704
740
740
746
816
947
967
983
996
1022
1074
1018
1056
1070
1084
1137
1144
1085
1094
1097
1150
1136
1079
1081
1102
1115
1063
991
1031
1039
1157
1001
971
977
994
966
1004
1004
1073
1109
1106
1105
1115
1112
1091
1017
916
1019
1041
1063
1054
1083
1250
1250
1321
1228
1223
1232
1224
1214
1183
1045
1112
1138
1104
1097
1101
1131
1183
1175
1140
1141
1180
1191
1150
1184
1171
1241
1251
1258
1269
1305
1315
1370
1382
1453
1477
1515
1554
1562
1555
1586
1586
1586
1595
1643
1705
1732
1705
1745
1745
1803
1947
1906
1976
2030
1974
1974
2013
2013
2029
1982
2080
1994
2017
2028
1987
2041
2099
2037
2120
2181
2192
2154
2130
2124
2124
2169
2183
2139
2238
2268
2333
2334
2246
2305
2377
2410
2474
2471
2572
2572
2532
2539
2485
2505
2483
2459
2441
2469
2451
2455
2464
2460
2372
2420
2473
2472
2488
2473
2534
2597
2580
2559
2621
2668
2652
2652
2699
2700
2726
2732
2720
2679
2635
2567
2596
2596
2579
2563
2591
2639
2673
2699
2711
2692
2682
2682
2682
2682
2670
2638
2746
2849
2907
2900
2787
2764
2817
2776
2776
2738
2737
2827
2827
2841
2880
2879
2896
2897
2904
2942
2901
2921
2908
2928
2950
2922
2951
2983
2936
2904
2930
2933
2950
2892
2894
2954
2955
2925
2928
2883
2899
2895
2920
2925
2949
2973
2995
2996
2938
2929
2956
2931
2896
2891
2920
2958
2917
2942
2999
3039
3064
3085
3031
3046
2986
2965
2980
2984
2926
2919
2889
2895
2902
2889
2889
2891
2891
2918
3030
2988
2980
2982
2963
3003
2890
2868
2874
2857
2847
2879
2857
2818
2812
2864
2895
2929
2916
2944
3010
2999
3000
2958
2921
2904
2895
2857
2846
2845
2836
2817
2786
2741
2802
2844
2847
2904
2994
3101
3077
3134
3121
3087
3060
2984
2948
2969
2957
2956
2962
2983
3021
3061
3101
3101
3107
3074
3093
3098
3089
3065
3121
3122
3122
3096
3043
2991
2953
2945
2945
2955
2938
2938
2950
2970
2948
2966
2972
2961
3007
3034
3004
3036
3033
3032
3100
3033
3023
3011
3104
3175
3108
3127
3270
3294
3376
3291
3222
3265
3201
3144
3121
3081
3093
3115
3089
3089
3119
3126
3154
3147
3152
3135
3114
3091
3113
3053
3080
3049
3021
3020
3031
3002
2976
3010
3006
3038
3019
2923
2960
3005
2944
2853
2701
2593
2700
2626
2534
2468
2402
2360
2406
2384
2166
2157
2164
2137
2242
2099
2037
2076
1968
1902
1825
1773
1775
1719
1717
1692
1713
1742
1760
1772
1723
1608
1740
1643
1669
1673
1695
1754
1883
1851
1851
1786
1696
1696
1580
1582
1629
1670
1670
1758
1606
1536
1538
1556
1529
1565
1365
1498
1727
1468
1496
1533
1551
1759
1734
1593
1594
1399
1418
1564
1546
1328
1354
1511
1653
1639
1619
1683
1683
469
581
612
682
698
750
817
820
767
816
817
801
800
792
811
844
811
778
840
841
866
933
923
943
981
973
955
950
917
900
932
946
949
991
1002
1028
1052
1027
998
1039
1008
975
958
869
820
902
863
957
984
983
992
999
953
936
932
947
945
940
925
926
918
906
891
900
894
881
907
936
950
983
969
1027
1059
1054
1033
1049
1046
1031
1031
1064
1089
1143
1187
1239
1243
1228
1226
1242
1312
1400
1455
1517
1607
1609
1532
1498
1498
1524
1556
1531
1595
1591
1641
1672
1645
1671
1744
1733
1772
1754
1705
1770
1737
1748
1740
1753
1791
1838
1812
1812
1812
1827
1823
1859
1919
1904
1920
1905
1913
1933
1956
1957
1984
1976
2007
1969
2018
1995
1921
1943
2004
2004
2066
2074
2084
2084
2098
2063
2062
2027
2027
2090
2136
2151
2196
2237
2238
2204
2184
2209
2177
2185
2177
2209
2224
2184
2163
2207
2194
2187
2153
2142
2142
2163
2163
2177
2199
2303
2301
2289
2290
2205
2302
2330
2269
2297
2311
2353
2428
2388
2338
2379
2352
2324
2263
2243
2261
2354
2334
2411
2469
2482
2483
2451
2453
2420
2400
2382
2376
2410
2388
2361
2372
2372
2372
2362
2359
2378
2394
2397
2389
2389
2403
2372
2375
2409
2418
2437
2476
2454
2456
2444
2444
2463
2468
2478
2511
2518
2518
2536
2522
2532
2518
2489
2519
2539
2487
2480
2453
2471
2505
2496
2466
2470
2485
2456
2459
2404
2439
2493
2585
2525
2592
2601
2624
2606
2570
2560
2560
2546
2515
2490
2489
2513
2528
2539
2545
2580
2604
2618
2584
2581
2579
2604
2589
2570
2562
2612
2601
2633
2616
2610
2618
2607
2582
2582
2582
2555
2539
2583
2650
2686
2688
2637
2686
2739
2655
2615
2589
2609
2603
2609
2577
2581
2622
2617
2616
2630
2644
2644
2635
2590
2604
2586
2612
2612
2624
2680
2688
2678
2699
2689
2662
2663
2621
2605
2607
2590
2575
2563
2578
2624
2629
2646
2702
2737
2752
2714
2690
2717
2696
2664
2634
2616
2617
2627
2607
2587
2610
2635
2658
2699
2692
2693
2698
2701
2699
2686
2688
2691
2715
2703
2684
2692
2700
2709
2678
2660
2662
2671
2658
2677
2687
2711
2727
2723
2702
2703
2680
2643
2643
2634
2637
2671
2695
2669
2663
2663
2694
2717
2725
2726
2747
2779
2734
2732
2699
2688
2705
2736
2727
2756
2737
2737
2729
2731
2730
2723
2741
2753
2734
2729
2713
2733
2751
2751
2778
2798
2829
2832
2799
2799
2799
2706
2660
2567
2486
2463
2479
2451
2479
2451
2467
2484
2458
2438
2417
2389
2336
2341
2335
2273
2245
2274
2227
2227
2136
2085
2055
2007
1996
1965
1933
1917
1889
1860
1829
1805
1830
1798
1755
1725
1713
1671
1663
1674
1692
1676
1676
1647
1648
1638
1591
1579
1565
1565
1551
1565
1572
1565
1521
1508
1483
1483
1513
1494
1500
1543
1532
1484
1510
1448
1418
1408
1409
1385
1421
1402
1437
1434
1388
1329
1322
1302
1295
1285
1271
1254
1294
1304
1279
1278
1264
1233
1262
1288
1356
1369
1385
1399
222
477
628
1018
1017
1000
1116
1291
1479
1483
1422
1422
1704
1899
1837
1895
1915
2107
2107
1960
1830
1849
1860
1876
1887
1940
2039
2014
1912
1936
2084
2122
2097
1958
1921
1972
2004
1940
1770
1841
1933
1964
1921
1920
1798
1813
1666
1743
1752
1708
1552
1605
1645
1658
1631
1551
1533
1588
1707
1679
1700
1744
1815
1831
1851
1691
1689
1665
1726
1671
1738
1704
1748
1755
1843
1850
1843
1782
1716
1793
1919
1877
1825
1797
1893
1969
1907
1904
1904
1922
1922
1915
1949
1958
1945
1969
1989
2056
2021
2049
2043
2031
2077
2199
2115
2176
2132
2174
2174
2235
2311
2469
2464
2585
2677
2677
2615
2607
2557
2567
2613
2593
2639
2696
2721
2779
2771
2764
2779
2779
2833
2880
2880
2962
2956
3024
3092
3119
3113
3125
3040
3104
3103
3125
3099
3124
3101
3134
3135
3119
3126
3132
3101
3114
3113
3155
3165
3123
3149
3238
3256
3215
3230
3228
3268
3222
3184
3184
3137
3084
3086
3086
3090
3075
3133
3117
3144
3127
3068
3100
3142
3142
3211
3244
3309
3309
3350
3406
3419
3441
3456
3474
3474
3445
3403
3365
3343
3343
3308
3314
3364
3368
3354
3355
3338
3322
3276
3250
3262
3302
3308
3308
3344
3334
3331
3386
3338
3333
3318
3289
3308
3280
3278
3294
3313
3279
3283
3267
3271
3320
3322
3292
3318
3315
3337
3370
3335
3332
3339
3342
3360
3361
3307
3263
3326
3322
3242
3241
3305
3399
3483
3441
3523
3509
3510
3401
3454
3413
3426
3415
3415
3465
3453
3394
3481
3433
3393
3373
3384
3424
3477
3403
3459
3459
3462
3427
3467
3439
3471
3485
3532
3488
3497
3477
3475
3490
3486
3471
3487
3505
3502
3520
3521
3509
3482
3432
3457
3482
3413
3329
3246
3195
3179
3021
3023
2832
2836
2671
2697
2664
2690
2681
2706
2779
2810
2739
2666
2574
2493
2524
2486
2470
2432
2396
2358
2374
2349
2293
2223
2181
2111
2112
2072
2072
2053
2052
2081
2066
2079
2060
2054
2059
2067
2056
2052
2033
1977
1909
1932
1976
2040
2187
2239
2284
2320
2227
2142
2113
2093
2074
2090
2033
2070
2104
2065
2026
1962
1983
2040
1962
1921
1885
1830
1899
1834
1828
1877
1928
1951
1998
1980
1962
1964
1964
1922
582
920
921
864
877
842
851
934
988
997
994
1003
1071
1061
1070
1115
1145
1199
1198
1177
1209
1206
1166
1179
1142
1191
1199
1149
1208
1218
1233
1257
1216
1158
1221
1169
1158
1172
1179
1189
1214
1189
1207
1231
1238
1221
1215
1211
1204
1205
1205
1179
1172
1158
1179
1128
1222
1222
1271
1344
1376
1347
1347
1258
1245
1232
1176
1168
1171
1165
1213
1206
1206
1206
1227
1195
1225
1258
1315
1282
1341
1363
1402
1361
1336
1289
1322
1297
1269
1269
1281
1268
1326
1293
1303
1357
1383
1379
1427
1426
1426
1453
1487
1584
1577
1566
1589
1623
1690
1631
1614
1652
1660
1652
1679
1708
1787
1793
1794
1825
1865
1870
1954
1945
2007
2067
2091
2118
2115
2165
2199
2227
2261
2298
2258
2258
2256
2256
2259
2256
2175
2205
2246
2196
2057
2131
2185
2182
2027
1994
2168
2309
2292
2268
2321
2385
2442
2375
2373
2373
2356
2369
2369
2310
2280
2253
2253
2196
2220
2288
2219
2336
2400
2367
2528
2393
2286
2398
2330
2279
2212
2184
2240
2278
2278
2236
2221
2256
2254
2260
2241
2201
2213
2196
2196
2248
2267
2325
2376
2390
2443
2390
2346
2396
2379
2343
2381
2394
2383
2456
2363
2363
2353
2349
2309
2352
2352
2352
2350
2378
2350
2358
2356
2316
2360
2325
2298
2298
2319
2312
2332
2313
2324
2333
2332
2316
2306
2301
2321
2376
2421
2439
2493
2492
2487
2476
2441
2412
2399
2351
2365
2353
2403
2455
2537
2462
2526
2551
2551
2518
2517
2463
2496
2461
2447
2439
2465
2465
2499
2476
2509
2499
2529
2527
2469
2406
2418
2418
2446
2428
2397
2428
2428
2450
2439
2454
2471
2510
2491
2526
2549
2530
2513
2472
2463
2500
2503
2474
2494
2517
2535
2536
2537
2512
2520
2510
2517
2517
2544
2519
2549
2565
2613
2601
2589
2562
2592
2603
2655
2587
2587
2624
2631
2625
2594
2547
2590
2624
2629
2613
2647
2697
2723
2736
2704
2637
2690
2712
2690
2675
2679
2758
2797
2817
2807
2803
2809
2837
2808
2808
2846
2855
2891
2897
2829
2693
2905
2952
2975
2946
2957
2980
2983
2865
2851
2833
2834
2820
2813
2836
2817
2819
2814
2814
2838
2817
2816
2817
2849
2857
2876
2902
2958
2931
3007
3020
3028
3028
3038
3008
3031
3044
3044
3089
3089
3109
3135
3174
3174
3152
3155
3156
3156
3128
3109
3102
3068
3067
3135
3141
3156
3193
3209
3209
3189
3174
3173
3198
3203
3217
3242
3257
3256
3256
3257
3245
3226
3221
3214
3170
3190
3219
3232
3245
3263
3278
3283
3301
3301
3299
3256
3223
3226
3245
3245
3287
3244
3287
3251
3295
3236
3271
3271
3342
3345
3432
3421
3421
3390
3344
3344
3325
3322
3299
3311
3273
3307
3266
3278
3230
3200
3228
3206
3139
3181
3199
3240
3301
3284
3324
3319
3310
3286
3261
3271
3263
3265
3250
3273
3262
3279
3223
3224
3224
3223
3210
3222
3180
3134
3083
3070
3015
2814
2597
2479
2386
2393
2368
2434
2484
2543
2582
2620
2580
2596
2618
2653
2654
2632
2593
2631
2633
2566
2528
2496
2484
2485
2406
2367
2321
2207
2129
2078
2012
1985
1985
1955
1917
1898
1859
1805
1767
1699
1712
1713
1647
1630
1603
1585
1572
1523
1572
1595
1574
1563
1538
1540
1558
1511
1509
1483
1486
1476
1484
1483
1498
1468
1462
1428
1427
1378
1378
1360
1402
1389
1280
1369
1456
1403
1425
1381
1528
1528
1460
1456
1456
1480
1470
1537
1536
1583
1609
1542
1604
1661
1671
1727
1675
1549
1552
1510
1497
1465
1429
1418
1451
1471
1455
1446
1446
1493
1530
1543
1545
1566
1566
1554
1494
739
859
809
809
850
1024
929
1026
1042
1175
1195
1196
979
1038
1281
1545
1593
1457
1562
1673
1755
1609
1475
1477
1651
1642
1613
1712
1737
1692
1692
1695
1734
1811
1798
1789
1789
1821
1800
1718
1602
1526
1691
1772
1609
1519
1688
1813
1695
1697
1729
1762
1776
1678
1546
1599
1632
1606
1529
1532
1576
1598
1599
1653
1477
1482
1413
1472
1488
1531
1517
1455
1591
1612
1509
1485
1449
1185
1569
1568
1517
1470
1391
1415
1523
1503
1374
1485
1513
1619
1579
1604
1490
1533
1567
1670
1624
1629
1582
1661
1612
1521
1434
1447
1410
1495
1471
1454
1447
1608
1567
1638
1654
1637
1651
1766
1727
1673
1747
1648
1636
1674
1583
1503
1637
1651
1657
1722
1733
1804
1798
1679
1577
1556
1608
1690
1770
1809
1844
1917
1957
1844
1722
1543
1636
1710
1775
1758
1775
1754
1988
2054
2153
2151
2106
2199
2284
2168
2083
1943
1943
2036
2043
2099
2165
2243
2313
2245
2195
2181
2173
2152
2181
2068
2069
2102
2068
2100
2119
2092
2170
2222
2247
2260
2224
2239
2249
2213
2215
2167
2101
2085
2054
2054
2027
2077
2068
2100
2121
2133
2163
2141
2127
2141
2071
2053
2066
2066
2091
2068
2123
2186
2174
2169
2151
2096
2129
2094
2094
2100
2129
2131
2184
2184
2224
2224
2259
2260
2220
2237
2330
2359
2323
2344
2342
2343
2202
2204
2286
2373
2385
2366
2458
2500
2359
2360
2304
2241
2304
2336
2362
2397
2352
2324
2368
2408
2440
2452
2428
2468
2485
2420
2392
2419
2414
2417
2439
2434
2482
2457
2463
2474
2461
2458
2483
2425
2438
2474
2487
2558
2518
2496
2519
2545
2506
2452
2421
2421
2460
2518
2534
2555
2582
2586
2586
2585
2542
2556
2595
2602
2612
2656
2658
2657
2630
2576
2571
2627
2590
2574
2569
2634
2711
2693
2606
2576
2575
2550
2575
2500
2475
2585
2686
2745
2819
2734
2776
2832
2787
2741
2741
2751
2751
2725
2707
2665
2710
2737
2705
2760
2838
2839
2842
2773
2744
2776
2735
2744
2788
2835
2882
2861
2866
2935
2927
2886
2866
2887
2915
2929
2961
2915
2893
2897
2891
2911
2892
2892
2997
2990
2991
2973
3002
3030
2975
2974
3012
3042
3067
3064
3028
3032
3014
3007
2966
2970
2971
2961
2939
2906
2893
2878
2798
2837
2851
2821
2793
2792
2855
2855
2758
2796
2659
2763
2770
2637
2614
2679
2512
2543
2543
2439
2353
2342
2307
2318
2277
2278
2186
2134
2044
2045
1997
1953
1921
1900
1833
1720
1832
1767
1715
1601
1547
1607
1709
1671
1684
1699
1699
1700
1639
1590
1574
1535
1535
1560
1553
1554
1576
1558
1501
1510
1523
1482
1551
1561
1575
1602
1574
1531
1544
1504
1480
1409
1360
1304
1275
1274
1393
1430
1391
1421
1503
1529
1466
1410
1410
1483
1491
1489
1526
1563
1577
1567
1529
1530
1518
1476
1401
1374
781
834
779
812
741
744
904
894
819
793
664
886
931
900
1010
1082
1163
1104
1060
1101
1214
1150
1157
1003
1152
1235
1258
1142
1141
1251
1283
1250
1241
1162
1203
1321
1253
1204
1219
1123
1154
1134
1132
1202
1317
1228
1224
1260
1400
1260
1165
1148
1212
1175
1165
1082
1171
1353
1152
1118
1220
1278
1378
1315
1142
1208
1259
1303
1249
1249
1286
1326
1323
1258
1277
1280
1265
1329
1348
1413
1413
1413
1426
1527
1551
1487
1489
1593
1587
1618
1524
1543
1647
1680
1672
1646
1686
1693
1690
1694
1733
1758
1785
1804
1826
1851
1884
1884
1844
1842
1884
1881
1838
1742
1804
1857
1875
1841
1817
1725
1647
1844
1846
1828
1969
1926
2051
2044
2043
2129
2127
2142
2212
2317
2396
2396
2375
2360
2389
2416
2437
2511
2469
2556
2610
2618
2671
2777
2697
2747
2772
2750
2731
2725
2659
2765
2841
2758
2686
2681
2690
2729
2739
2754
2753
2755
2774
2781
2830
2805
2807
2798
2848
2835
2823
2824
2921
2937
2907
2909
2941
2973
2917
2917
2926
2952
2999
2999
3032
3060
3005
2982
2956
2906
2975
2895
2822
2815
2802
2851
3000
2937
2950
3025
3034
3102
3052
3037
3044
3083
3006
3097
3098
3050
2979
3058
3028
3143
3042
2998
3024
3024
3008
3058
3025
3025
3050
3040
3127
3069
3004
3022
3096
3091
3139
3035
3113
3150
3093
2981
3043
3042
3062
3076
3126
3220
3322
3220
3127
3127
3080
3039
3046
3035
3032
3047
3123
3141
3117
3047
3022
3010
3070
3011
3041
3022
3052
3071
3060
2968
3059
3081
3182
3196
3227
3296
3296
3245
3112
3118
3099
3140
3169
3224
3367
3309
3311
3354
3206
3157
3224
3277
3288
3274
3170
3169
3209
3168
3167
3208
3216
3223
3297
3279
3217
3216
3150
3175
3235
3227
3196
3240
3241
3232
3262
3178
3154
3240
3259
3240
3254
3177
3229
3266
3225
3224
3295
3352
3395
3387
3280
3389
3375
3296
3317
3338
3429
3432
3439
3440
3376
3373
3335
3347
3442
3426
3425
3425
3404
3418
3396
3315
3346
3270
3296
3334
3372
3342
3355
3381
3472
3493
3410
3364
3374
3419
3414
3355
3352
3432
3383
3453
3437
3503
3605
3545
3422
3559
3631
3643
3532
3450
3531
3611
3605
3530
3544
3622
3689
3620
3538
3553
3601
3632
3591
3584
3628
3646
3604
3647
3716
3685
3681
3746
3680
3711
3615
3600
3644
3579
3519
3639
3619
3545
3449
3494
3622
3650
3650
3729
3738
3781
3759
3664
3679
3633
3612
3682
3708
3664
3676
3696
3792
3698
3615
3466
3683
3787
3737
3659
3794
3775
3861
3768
3647
3717
3826
3676
3685
3642
3702
3900
3766
3730
3730
3748
3741
3723
3664
3683
3668
3675
3628
3627
3637
3627
3619
3616
3664
3691
3644
3594
3643
3707
3690
3655
3690
3690
3720
3640
3641
3670
3696
3688
3703
3711
3754
3770
3783
3735
3742
3759
3750
3723
3670
3662
3654
3661
3661
3670
3650
3646
3592
3609
3591
3576
3475
3427
3373
3403
3409
3431
3548
3591
3613
3613
3644
3577
3526
3520
3530
3514
3585
3476
3485
3479
3502
3491
3484
3439
3473
3523
3383
3389
3258
3471
3534
3506
3459
3565
3388
3388
3218
3132
2993
2841
2742
2618
2784
2886
2998
3183
3296
3476
3480
3434
3376
3349
3321
3357
3244
3229
3207
3206
3026
2872
2767
2722
2522
2522
2601
2563
2593
2581
2534
2575
2439
2439
2499
2568
2547
2525
2472
2445
2431
2390
2337
2273
2248
2249
2300
2240
2164
2163
2171
2228
2159
2100
2105
2068
1990
1999
1986
1999
1999
1941
1949
1991
1982
1916
1955
1757
1985
1961
1889
1875
1869
1794
1806
1740
1738
1737
1789
1740
1740
1722
1712
1830
1741
1747
1773
1720
1694
1725
1644
1696
1651
1615
1721
1757
744
866
836
823
824
846
695
659
655
720
749
807
806
859
970
961
900
897
945
945
906
816
784
761
701
763
618
650
758
791
892
959
934
934
975
896
1010
950
1018
922
950
910
959
931
943
942
1047
1091
1099
1147
1125
1133
1093
1029
991
907
946
962
961
1010
1232
1287
1261
1229
1182
1184
1038
960
862
810
765
808
737
806
829
889
861
862
914
1008
1072
1134
1197
1197
1097
1106
1110
1000
961
852
990
1074
1125
1195
1227
1177
1275
1205
1195
1059
969
988
1033
1032
1042
1036
1127
1211
1163
1209
1125
1118
1073
1102
1102
1163
1117
1244
1247
1247
1196
1110
1157
1336
1323
1346
1408
1529
1582
1592
1530
1432
1483
1546
1543
1509
1404
1542
1673
1728
1655
1733
1828
1896
1839
1816
1795
1799
1810
1765
1792
1735
1685
1662
1689
1689
1725
1670
1726
1726
1744
1768
1769
1920
1910
1869
1841
1882
1865
1857
1855
1954
2067
2073
2072
2077
1986
1876
1874
1914
1986
2010
2063
2191
2227
2194
2161
2111
2082
2022
1912
1911
1944
1968
2025
2094
2023
2148
1951
1883
1875
1863
1863
2051
2122
2187
2187
2226
2230
2194
2192
2191
2197
2197
2072
2127
2181
2120
2071
2097
2234
2265
2178
2091
2054
2033
1973
1916
1916
2020
2125
2264
2367
2396
2397
2309
2314
2270
2266
2238
2307
2333
2409
2344
2334
2300
2243
2183
2211
2212
2217
2227
2245
2245
2214
2182
2181
2227
2198
2248
2278
2312
2349
2305
2301
2301
2274
2250
2261
2286
2310
2310
2298
2424
2455
2411
2390
2320
2299
2363
2325
2338
2357
2372
2377
2375
2334
2326
2307
2318
2300
2318
2271
2300
2342
2399
2365
2359
2307
2309
2305
2315
2288
2333
2340
2341
2418
2401
2386
2317
2290
2247
2222
2106
2146
2066
2114
2129
2191
2313
2314
2314
2297
2275
2306
2293
2273
2297
2273
2281
2307
2284
2274
2277
2254
2245
2262
2268
2251
2284
2324
2354
2376
2400
2384
2384
2410
2349
2354
2329
2308
2254
2252
2251
2300
2304
2377
2393
2449
2450
2400
2392
2400
2429
2436
2438
2438
2429
2411
2374
2361
2307
2338
2360
2360
2406
2437
2392
2449
2400
2401
2503
2485
2391
2413
2389
2424
2410
2344
2345
2412
2489
2516
2522
2528
2554
2519
2479
2479
2456
2444
2408
2407
2440
2410
2443
2497
2571
2576
2590
2553
2605
2613
2630
2599
2599
2549
2552
2467
2447
2417
2429
2508
2571
2521
2555
2516
2552
2531
2512
2512
2535
2540
2539
2546
2593
2574
2536
2561
2534
2637
2643
2620
2665
2671
2632
2655
2646
2563
2515
2464
2518
2589
2620
2579
2612
2633
2635
2582
2563
2552
2483
2536
2532
2526
2528
2592
2736
2792
2720
2650
2667
2750
2689
2668
2626
2634
2624
2636
2563
2608
2556
2623
2607
2609
2618
2676
2674
2661
2632
2682
2708
2676
2633
2626
2674
2684
2699
2726
2769
2764
2757
2743
2774
2793
2775
2786
2786
2728
2747
2751
2768
2781
2831
2905
2906
2898
2898
2853
2874
2822
2850
2848
2876
2842
2853
2824
2857
2828
2830
2783
2771
2816
2829
2829
2806
2839
2877
2898
2900
2939
2920
2949
2911
2914
2948
2922
2889
2912
2886
2886
2880
2896
2934
2976
2951
2934
2969
3013
3003
3004
2950
3011
3067
3065
3083
3089
2981
3038
2863
2881
2897
2901
2911
3059
3117
3120
3085
3027
3027
3006
3025
2992
2948
2990
3053
3010
3057
3056
3037
3121
3097
3061
3040
2975
2951
2978
2958
2989
2998
3022
3027
3044
3044
3095
3118
3137
3165
3202
3171
3171
3120
3117
3099
3073
3073
3094
3138
3182
3194
3232
3235
3253
3296
3254
3272
3278
3253
3283
3273
3230
3230
3232
3209
3198
3119
3122
3154
3171
3170
3185
3251
3250
3277
3266
3268
3268
3274
3264
3353
3365
3303
3293
3276
3286
3292
3246
3255
3133
3196
3226
3179
3172
3270
3239
3295
3338
3278
3311
3312
3257
3282
3217
3261
3151
3086
3191
3264
3180
3313
3120
3112
2997
2802
2594
2497
2497
2546
2568
2505
2511
2591
2642
2670
2717
2723
2924
2923
2819
2796
2659
2587
2568
2568
2600
2574
2536
2468
2469
2437
2374
2374
2347
2323
2304
2265
2224
2197
2114
2100
2036
2000
2006
1985
2006
2025
2025
2033
2030
1992
1976
1966
1923
1874
1825
1765
1686
1687
1678
1659
1676
1676
1588
1662
1619
1587
1554
1554
1526
1524
1543
1551
1551
1537
1545
1578
1580
1545
1409
1392
1526
1507
1477
1488
1488
1488
1465
1443
1417
1431
1400
1403
1404
1368
1363
1340
1226
1274
1253
1291
1351
1291
1266
1295
1256
1266
1240
1241
1228
1255
1220
1173
1160
1167
1147
1194
1159
1257
1308
1259
1283
1338
1341
1292
1199
1170
1169
1116
1049
999
1026
1038
1037
90
553
610
569
587
581
500
634
700
900
884
905
973
1100
1131
1118
1026
1239
1240
1069
1138
1033
1011
1031
929
917
1032
1032
1065
1015
1002
1007
1045
1032
1013
1021
1074
1042
1013
965
934
907
936
890
923
931
969
965
955
958
960
967
980
972
950
963
983
1001
1010
1014
1003
1011
994
962
977
1005
1007
1009
1021
1043
1062
1020
986
1002
1048
1053
1057
1023
1100
1121
1121
1095
1084
1070
1126
1165
1242
1166
1167
1180
1247
1301
1292
1342
1336
1334
1433
1481
1460
1410
1396
1433
1551
1616
1618
1631
1731
1759
1760
1655
1657
1648
1616
1608
1656
1648
1759
1773
1736
1736
1717
1751
1838
1756
1618
1742
1936
1953
1846
1914
2043
2136
2002
1842
1901
1913
1912
1840
1705
1847
1954
1895
1975
1949
1929
1925
1905
1887
1887
1900
1908
1946
1975
2045
2045
2041
1995
1987
2000
2030
2032
2063
2024
2023
2049
2062
1995
2003
2043
2099
2099
2128
2188
2256
2299
2286
2229
2230
2201
2163
2154
2124
2108
2148
2147
2147
2167
2223
2225
2255
2267
2252
2253
2230
2257
2241
2235
2202
2175
2173
2119
2113
2156
2196
2160
2222
2308
2308
2218
2243
2292
2292
2156
2229
2399
2536
2436
2373
2524
2553
2434
2330
2381
2469
2235
2235
2329
2326
2507
2389
2258
2304
2204
2174
2187
2216
2214
2253
2285
2292
2321
2318
2317
2316
2303
2303
2317
2340
2306
2335
2323
2328
2296
2302
2276
2287
2253
2283
2380
2392
2357
2387
2426
2501
2436
2358
2337
2324
2244
2140
2115
2042
2048
2156
2125
2193
2255
2233
2276
2237
2141
2238
2227
2218
2208
2193
2217
2217
2165
2105
2087
2100
2087
2082
2090
2082
2157
2190
2198
2234
2239
2141
2199
2195
2151
2163
2171
2149
2219
2195
2236
2338
2376
2328
2400
2361
2428
2374
2289
2188
2159
2160
2160
2133
2142
2149
2183
2236
2315
2358
2333
2329
2378
2274
2219
2165
2130
2163
2157
2133
2123
2128
2143
2105
2105
2137
2163
2192
2172
2166
2193
2209
2214
2206
2234
2233
2269
2297
2320
2284
2240
2291
2385
2375
2392
2400
2414
2491
2430
2366
2368
2318
2250
2351
2334
2365
2361
2433
2560
2573
2495
2469
2464
2478
2371
2301
2301
2364
2366
2369
2412
2412
2474
2475
2453
2391
2391
2423
2487
2462
2513
2474
2531
2595
2520
2495
2509
2534
2571
2570
2562
2549
2538
2592
2573
2511
2496
2513
2517
2527
2479
2458
2439
2446
2446
2486
2452
2502
2478
2541
2592
2507
2478
2539
2591
2555
2641
2616
2732
2705
2655
2655
2698
2671
2613
2612
2664
2713
2686
2705
2710
2762
2781
2706
2743
2722
2705
2770
2748
2731
2778
2722
2766
2766
2741
2734
2729
2699
2724
2724
2724
2689
2708
2689
2678
2676
2667
2723
2740
2771
2790
2820
2815
2841
2835
2899
2917
2951
2997
3007
2981
2981
2987
2946
2947
2926
2924
2867
2924
2911
2902
2931
2945
2927
2935
2924
2908
2941
2899
2867
2885
2923
2923
2876
2842
2834
2884
2903
2902
2880
2941
2976
2988
2962
2944
2958
2941
2942
2937
2985
3005
3026
3015
3054
3081
3079
3040
3033
3030
3064
3046
3046
3046
3015
3067
3111
3071
3081
3116
3155
3187
3189
3181
3195
3157
3130
3126
3117
3051
2986
2920
2838
2708
2625
2570
2449
2450
2341
2320
2350
2316
2302
2283
2283
2281
2280
2304
2311
2246
2204
2108
2060
1935
1798
1734
1735
1718
1652
1698
1708
1819
1799
1664
1577
1683
1677
1560
1545
1565
1634
1656
1585
1557
1557
1518
1518
1530
1519
1510
1474
1452
1459
1426
1427
1391
1375
1365
1357
1331
1273
1273
1317
1299
1295
1300
1331
1317
1256
1238
1240
1257
1264
1233
1250
1242
1242
1228
1228
1207
1225
1214
1203
1246
1233
1293
1308
1226
1252
1278
1239
1239
1239
1301
1361
1379
1399
1442
1442
1418
1406
1406
1383
1377
1338
1338
1234
1150
1179
1177
541
666
664
701
751
813
867
942
942
1025
1034
1028
1027
1098
1097
1195
1322
1370
1399
1415
1283
1375
1293
1192
1172
1245
1244
1240
1142
1226
1309
1309
1255
1204
1249
1275
1225
1143
1186
1248
1240
1240
1201
1210
1208
1230
1194
1133
1081
1130
1144
1203
1189
1162
1241
1305
1370
1413
1374
1357
1370
1331
1324
1317
1283
1302
1280
1211
1277
1285
1261
1191
1134
1248
1405
1331
1279
1320
1324
1391
1350
1326
1375
1458
1444
1444
1443
1470
1495
1550
1582
1606
1606
1518
1530
1580
1593
1532
1491
1576
1710
1712
1610
1590
1614
1708
1814
1710
1731
1839
1900
1935
1998
1945
1983
1975
1973
1936
1981
1980
2035
2099
2132
2135
2149
2222
2176
2136
2086
2140
2104
2027
2027
2025
2089
2213
2156
2156
2244
2222
2267
2220
2191
2240
2256
2193
2236
2196
2145
2167
2165
2174
2243
2229
2229
2249
2211
2216
2207
2226
2233
2224
2222
2230
2227
2236
2230
2231
2240
2251
2279
2269
2273
2277
2278
2265
2219
2219
2198
2164
2174
2229
2244
2236
2284
2291
2335
2255
2220
2232
2271
2271
2287
2250
2263
2263
2251
2253
2233
2250
2250
2259
2295
2315
2271
2301
2300
2329
2297
2320
2293
2338
2337
2322
2338
2342
2306
2350
2357
2357
2359
2349
2362
2339
2346
2346
2288
2231
2315
2345
2392
2335
2339
2433
2466
2378
2372
2341
2367
2401
2401
2392
2380
2347
2343
2319
2347
2402
2425
2455
2503
2566
2579
2489
2493
2500
2500
2426
2464
2483
2522
2554
2549
2618
2619
2568
2569
2553
2535
2535
2483
2519
2528
2527
2518
2453
2465
2531
2549
2551
2576
2526
2526
2541
2536
2549
2512
2458
2433
2524
2466
2468
2468
2497
2553
2616
2622
2643
2625
2589
2614
2534
2588
2520
2603
2666
2726
2736
2763
2691
2732
2711
2732
2719
2721
2733
2751
2781
2783
2796
2796
2845
2841
2840
2833
2842
2848
2852
2829
2856
2846
2830
2740
2634
2657
2702
2702
2712
2770
2842
2868
2818
2838
2838
2844
2883
2897
2886
2918
2873
2839
2824
2777
2780
2806
2805
2830
2894
2925
2954
2955
2945
2978
2937
2910
2889
2887
2874
2872
2866
2866
2870
2888
2899
2889
2879
2863
2820
2765
2766
2757
2761
2765
2823
2866
2892
2858
2869
2847
2774
2685
2592
2502
2410
2361
2289
2289
2372
2462
2585
2647
2729
2728
2685
2686
2676
2627
2617
2556
2537
2498
2423
2370
2320
2306
2282
2207
2144
2115
2015
2019
1966
1936
1898
1857
1797
1798
1757
1710
1673
1631
1625
1634
1617
1614
1599
1579
1527
1543
1483
1445
1445
1426
1398
1394
1379
1385
1364
1364
1373
1393
1409
1416
1384
1435
1472
1461
1477
1506
1525
1566
1526
1517
1531
1519
1481
1473
1449
1462
1462
1438
1448
1451
1456
1483
1505
1493
1493
1491
1479
1452
1423
1421
1406
1406
1384
1368
1341
665
216
277
581
807
947
909
970
1047
1146
1130
1089
1045
1170
1169
1129
998
1173
1165
1223
1075
1230
1358
1415
1385
1388
1363
1399
1403
1370
1350
1323
1309
1325
1321
1322
1331
1383
1382
1455
1505
1472
1461
1485
1446
1514
1530
1539
1570
1572
1549
1553
1554
1550
1554
1579
1621
1700
1689
1673
1638
1649
1619
1575
1576
1600
1683
1763
1819
1916
2011
2093
2220
2295
2251
2252
2160
2118
2047
2046
2079
2172
2296
2312
2315
2406
2406
2530
2578
2533
2693
2776
2771
2691
2691
2650
2650
2564
2648
2799
2864
2745
2590
2900
2998
2856
2813
2808
2904
3055
2968
3019
3020
3005
3112
3158
2852
2637
2696
2980
2965
2905
2806
3008
3090
3103
3071
3053
3022
2982
3114
3135
3069
2910
2872
3061
3226
3125
2984
3034
3188
3380
3190
3175
3157
3266
3188
3174
3174
3234
3222
3325
3369
3369
3231
3078
2952
2960
2959
2998
3092
3291
3493
3479
3481
3415
3321
3247
3169
3169
3249
3332
3336
3363
3408
3412
3366
3333
3328
3355
3385
3284
3243
3271
3343
3459
3436
3488
3625
3642
3625
3622
3567
3477
3512
3480
3493
3487
3498
3651
3721
3657
3721
3776
3777
3736
3688
3620
3602
3503
3448
3524
3517
3560
3642
3543
3520
3640
3733
3726
3675
3575
3728
3744
3849
3773
3806
3913
3955
3879
3880
3633
3737
3771
3720
3683
3694
3956
3945
3890
3846
3797
3833
3803
3773
3794
3727
3707
3721
3695
3687
3687
3737
3782
3850
3925
4009
4047
3991
3998
4012
4014
4013
3893
3769
3805
3804
3842
3913
3936
3907
4042
4050
4045
4055
4114
4021
4103
4079
4082
4099
4097
4084
4094
4125
4125
4125
4055
4000
3960
4069
4122
4259
4154
4312
4398
4505
4457
4414
4347
4394
4248
4171
4096
3980
4055
4028
4027
4043
4136
4079
3999
3756
3893
4110
4112
4181
4358
4544
4619
4358
4360
4356
4262
4188
4176
4011
4019
4037
4088
4017
4038
4050
4185
4163
4162
4203
4207
4273
4403
4358
4531
4452
4301
4415
4368
4351
4397
4438
4377
4387
4374
4584
4483
4479
4321
4493
4534
4613
4505
4626
4494
4556
4559
4592
4477
4529
4491
4576
4608
4608
4498
4570
4542
4600
4526
4556
4377
4492
4358
4531
4481
4583
4481
4632
4577
4681
4565
4637
4521
4499
4427
4453
4483
4540
4491
4506
4575
4622
4521
4528
4449
4540
4609
4677
4649
4672
4626
4663
4751
4682
4601
4676
4769
4733
4737
4684
4668
4667
4572
4523
4656
4655
4768
4774
4861
4818
4865
4847
4779
4774
4855
4823
4806
4826
4783
4773
4789
4709
4722
4721
4759
4759
4711
4610
4641
4642
4642
4622
4556
4574
4544
4549
4550
4531
4605
4669
4791
4881
4829
4821
4879
4812
4872
4821
4770
4770
4820
4874
4870
4862
4928
4993
4958
4933
4980
4987
4987
4929
4897
4856
4835
4796
4821
4863
4907
4882
4970
4999
5025
5000
4990
4944
4975
4832
4815
4733
4756
4794
4799
4798
4881
4913
4939
4915
4872
4861
4862
4845
4745
4650
4238
3869
3831
3718
3687
3535
3757
3977
4114
4077
4215
4291
4302
4240
4126
4057
4019
3937
3878
3819
3851
3820
3745
3669
3544
3425
3350
3288
3254
3230
3183
3113
3113
2979
2833
2773
2804
2803
2710
2625
2552
2589
2697
2598
2425
2442
2408
2464
2383
2310
2309
2389
2451
2452
2429
2412
2454
2399
2260
2217
2315
2280
2391
2260
2154
2216
2163
2166
2143
2143
2140
2168
2176
2177
2066
2113
2072
1978
1920
1920
2037
2019
1959
1955
1955
1995
1926
1925
1928
1953
1982
2047
2058
2085
2004
2074
2082
2014
1961
1899
1797
1884
1904
1903
1933
1818
1911
2032
2032
2044
2072
2150
2202
2152
2145
2147
2088
1971
1909
1843
1780
1700
1668
1604
1512
1567
1566
1710
1732
1738
1732
1827
1874
1782
1773
1819
1926
2035
2042
1973
1930
1932
1860
1752
1703
1623
1568
1567
1614
1595
1566
1542
1612
1686
1665
1724
1775
1787
1830
1826
1767
1791
1750
1732
1744
1738
1698
1706
1706
1672
1722
1723
1723
1798
1717
1683
1711
1724
1635
1509
833
942
968
961
962
941
993
1001
969
953
989
1036
1058
1069
1088
1167
1283
1353
1325
1384
1416
1416
1439
1412
1396
1379
1380
1425
1425
1309
1258
1277
1398
1344
1176
1238
1312
1324
1304
1305
1307
1307
1322
1348
1328
1315
1314
1314
1334
1285
1259
1259
1275
1275
1234
1218
1279
1285
1318
1345
1354
1393
1393
1348
1359
1384
1355
1355
1343
1343
1354
1357
1323
1345
1371
1364
1425
1438
1460
1559
1555
1496
1506
1535
1585
1636
1574
1562
1606
1628
1639
1613
1594
1594
1639
1631
1658
1669
1716
1799
1827
1852
1874
1902
1975
1983
1946
1990
2037
2080
2126
2100
2188
2276
2282
2387
2387
2432
2485
2484
2500
2542
2536
2494
2511
2485
2451
2561
2547
2655
2767
2811
2870
2874
2795
2691
2692
2752
2685
2779
2706
2769
2825
2826
2662
2726
2646
2690
2809
2860
2731
2850
2905
2980
3138
2994
2944
3032
3134
3237
3344
3235
3213
3213
3255
3188
3041
2995
2934
3035
3170
3175
3175
3354
3381
3399
3467
3474
3443
3377
3376
3316
3403
3234
3260
3318
3268
3258
3295
3193
3259
3264
3322
3352
3267
3206
3309
3361
3414
3320
3266
3435
3569
3615
3577
3381
3508
3713
3728
3735
3778
3859
3859
3725
3734
3556
3619
3625
3678
3744
3896
3941
3941
3898
3912
3823
3855
3867
3887
3886
3881
3733
3747
3704
3736
3691
3786
3717
3843
3830
3924
3884
3830
3835
3870
3853
3810
3708
3665
3744
3807
3879
3838
3984
4143
4264
4170
4049
4051
4185
4192
4054
3993
4153
4184
4145
4135
4135
4182
4160
4187
4187
4125
4083
4079
4012
4007
3908
3918
4070
4140
4033
4141
4191
4269
4269
4320
4295
4199
4080
4139
4097
4217
4191
4188
4277
4367
4379
4443
4428
4521
4515
4516
4555
4512
4473
4508
4515
4496
4521
4458
4421
4163
4117
4092
4114
4159
4030
4014
4219
4377
4484
4487
4409
4649
4681
4633
4535
4477
4477
4552
4607
4565
4561
4545
4446
4632
4628
4546
4624
4521
4583
4680
4526
4408
4428
4452
4452
4452
4396
4532
4635
4712
4763
4768
4680
4762
4768
4726
4572
4602
4526
4575
4601
4500
4499
4732
4759
4808
4847
4859
4860
4743
4744
4625
4680
4552
4573
4533
4564
4482
4598
4578
4655
4596
4642
4667
4804
4786
4862
4798
4913
4962
4891
4840
4762
4724
4688
4616
4583
4530
4465
4539
4577
4638
4702
4794
4906
4950
